,Time,Value
0,2.99999999999998,0.1015
1,3.00999999999998,0.1025
2,3.0199999999999796,0.1
3,3.0299999999999794,0.095
4,3.039999999999979,0.1
5,3.049999999999979,0.109
6,3.0599999999999787,0.108
7,3.0699999999999785,0.1055
8,3.0799999999999783,0.1055
9,3.089999999999978,0.103
10,3.099999999999978,0.1005
11,3.1099999999999777,0.1015
12,3.1199999999999775,0.1065
13,3.1299999999999772,0.1
14,3.139999999999977,0.094
15,3.149999999999977,0.099
16,3.1599999999999766,0.1025
17,3.1699999999999764,0.1075
18,3.179999999999976,0.1055
19,3.189999999999976,0.0975
20,3.1999999999999758,0.0985
21,3.2099999999999755,0.101
22,3.2199999999999753,0.1065
23,3.229999999999975,0.107
24,3.239999999999975,0.1005
25,3.2499999999999747,0.1025
26,3.2599999999999745,0.1045
27,3.2699999999999743,0.106
28,3.279999999999974,0.1065
29,3.289999999999974,0.1045
30,3.2999999999999736,0.105
31,3.3099999999999734,0.103
32,3.319999999999973,0.0985
33,3.329999999999973,0.1
34,3.3399999999999728,0.1015
35,3.3499999999999726,0.1
36,3.3599999999999723,0.098
37,3.369999999999972,0.095
38,3.379999999999972,0.0985
39,3.3899999999999717,0.102
40,3.3999999999999715,0.1005
41,3.4099999999999713,0.102
42,3.419999999999971,0.107
43,3.429999999999971,0.106
44,3.4399999999999706,0.0975
45,3.4499999999999704,0.098
46,3.45999999999997,0.101
47,3.46999999999997,0.103
48,3.47999999999997,0.104
49,3.4899999999999696,0.103
50,3.4999999999999694,0.1075
51,3.509999999999969,0.108
52,3.519999999999969,0.0995
53,3.5299999999999687,0.093
54,3.5399999999999685,0.0995
55,3.5499999999999683,0.103
56,3.559999999999968,0.0985
57,3.569999999999968,0.098
58,3.5799999999999677,0.1
59,3.5899999999999674,0.1005
60,3.5999999999999672,0.0985
61,3.609999999999967,0.1015
62,3.619999999999967,0.112
63,3.6299999999999666,0.111
64,3.6399999999999664,0.1055
65,3.649999999999966,0.104
66,3.659999999999966,0.105
67,3.6699999999999657,0.1085
68,3.6799999999999655,0.1125
69,3.6899999999999653,0.1145
70,3.699999999999965,0.113
71,3.709999999999965,0.1095
72,3.7199999999999647,0.105
73,3.7299999999999645,0.109
74,3.7399999999999642,0.1055
75,3.749999999999964,0.097
76,3.759999999999964,0.0995
77,3.7699999999999636,0.1025
78,3.7799999999999634,0.099
79,3.789999999999963,0.102
80,3.799999999999963,0.107
81,3.8099999999999627,0.1015
82,3.8199999999999625,0.1
83,3.8299999999999623,0.105
84,3.839999999999962,0.107
85,3.849999999999962,0.1105
86,3.8599999999999617,0.1145
87,3.8699999999999615,0.11
88,3.8799999999999613,0.1125
89,3.889999999999961,0.1125
90,3.899999999999961,0.1075
91,3.9099999999999606,0.11
92,3.9199999999999604,0.1035
93,3.92999999999996,0.1105
94,3.93999999999996,0.1095
95,3.9499999999999598,0.096
96,3.9599999999999596,0.1
97,3.9699999999999593,0.1
98,3.979999999999959,0.102
99,3.989999999999959,0.1025
100,3.9999999999999587,0.1
101,4.009999999999959,0.1025
102,4.019999999999959,0.107
103,4.0299999999999585,0.1105
104,4.039999999999958,0.106
105,4.049999999999958,0.11
106,4.059999999999958,0.1095
107,4.069999999999958,0.108
108,4.079999999999957,0.109
109,4.089999999999957,0.108
110,4.099999999999957,0.111
111,4.109999999999957,0.1095
112,4.119999999999957,0.1045
113,4.129999999999956,0.0985
114,4.139999999999956,0.095
115,4.149999999999956,0.1005
116,4.159999999999956,0.1045
117,4.1699999999999555,0.0925
118,4.179999999999955,0.0925
119,4.189999999999955,0.096
120,4.199999999999955,0.1025
121,4.209999999999955,0.103
122,4.2199999999999545,0.103
123,4.229999999999954,0.115
124,4.239999999999954,0.112
125,4.249999999999954,0.111
126,4.259999999999954,0.1095
127,4.269999999999953,0.1105
128,4.279999999999953,0.1115
129,4.289999999999953,0.1085
130,4.299999999999953,0.108
131,4.3099999999999525,0.105
132,4.319999999999952,0.105
133,4.329999999999952,0.106
134,4.339999999999952,0.0975
135,4.349999999999952,0.0995
136,4.3599999999999515,0.1035
137,4.369999999999951,0.098
138,4.379999999999951,0.0955
139,4.389999999999951,0.0945
140,4.399999999999951,0.1
141,4.40999999999995,0.0965
142,4.41999999999995,0.0975
143,4.42999999999995,0.105
144,4.43999999999995,0.1055
145,4.4499999999999496,0.106
146,4.459999999999949,0.1035
147,4.469999999999949,0.103
148,4.479999999999949,0.1015
149,4.489999999999949,0.1005
150,4.4999999999999485,0.1015
151,4.509999999999948,0.101
152,4.519999999999948,0.1035
153,4.529999999999948,0.0965
154,4.539999999999948,0.098
155,4.549999999999947,0.1055
156,4.559999999999947,0.0985
157,4.569999999999947,0.097
158,4.579999999999947,0.0995
159,4.589999999999947,0.0975
160,4.599999999999946,0.0965
161,4.609999999999946,0.103
162,4.619999999999946,0.1075
163,4.629999999999946,0.108
164,4.6399999999999455,0.1075
165,4.649999999999945,0.108
166,4.659999999999945,0.1055
167,4.669999999999945,0.1015
168,4.679999999999945,0.1155
169,4.689999999999944,0.1165
170,4.699999999999944,0.102
171,4.709999999999944,0.1
172,4.719999999999944,0.099
173,4.729999999999944,0.102
174,4.739999999999943,0.1055
175,4.749999999999943,0.101
176,4.759999999999943,0.0975
177,4.769999999999943,0.099
178,4.7799999999999425,0.1005
179,4.789999999999942,0.0935
180,4.799999999999942,0.0935
181,4.809999999999942,0.1
182,4.819999999999942,0.098
183,4.8299999999999415,0.1025
184,4.839999999999941,0.1055
185,4.849999999999941,0.102
186,4.859999999999941,0.1065
187,4.869999999999941,0.1085
188,4.87999999999994,0.109
189,4.88999999999994,0.104
190,4.89999999999994,0.105
191,4.90999999999994,0.1095
192,4.9199999999999395,0.1025
193,4.929999999999939,0.106
194,4.939999999999939,0.1025
195,4.949999999999939,0.0945
196,4.959999999999939,0.0925
197,4.9699999999999385,0.0915
198,4.979999999999938,0.0935
199,4.989999999999938,0.093
200,4.999999999999938,0.1
201,5.009999999999938,0.0995
202,5.019999999999937,0.097
203,5.029999999999937,0.104
204,5.039999999999937,0.1015
205,5.049999999999937,0.101
206,5.0599999999999365,0.1005
207,5.069999999999936,0.101
208,5.079999999999936,0.1
209,5.089999999999936,0.0975
210,5.099999999999936,0.0975
211,5.1099999999999355,0.0955
212,5.119999999999935,0.095
213,5.129999999999935,0.0925
214,5.139999999999935,0.0915
215,5.149999999999935,0.095
216,5.159999999999934,0.096
217,5.169999999999934,0.0925
218,5.179999999999934,0.0885
219,5.189999999999934,0.0915
220,5.199999999999934,0.097
221,5.209999999999933,0.0975
222,5.219999999999933,0.098
223,5.229999999999933,0.0985
224,5.239999999999933,0.101
225,5.2499999999999325,0.1015
226,5.259999999999932,0.099
227,5.269999999999932,0.1025
228,5.279999999999932,0.101
229,5.289999999999932,0.0945
230,5.299999999999931,0.0915
231,5.309999999999931,0.095
232,5.319999999999931,0.0935
233,5.329999999999931,0.093
234,5.339999999999931,0.0945
235,5.34999999999993,0.0935
236,5.35999999999993,0.0915
237,5.36999999999993,0.084
238,5.37999999999993,0.0865
239,5.3899999999999295,0.093
240,5.399999999999929,0.093
241,5.409999999999929,0.094
242,5.419999999999929,0.099
243,5.429999999999929,0.0965
244,5.4399999999999284,0.0955
245,5.449999999999928,0.0945
246,5.459999999999928,0.093
247,5.469999999999928,0.0985
248,5.479999999999928,0.0965
249,5.489999999999927,0.0975
250,5.499999999999927,0.0975
251,5.509999999999927,0.0955
252,5.519999999999927,0.099
253,5.5299999999999265,0.094
254,5.539999999999926,0.092
255,5.549999999999926,0.091
256,5.559999999999926,0.09
257,5.569999999999926,0.1
258,5.5799999999999255,0.094
259,5.589999999999925,0.088
260,5.599999999999925,0.0935
261,5.609999999999925,0.092
262,5.619999999999925,0.0915
263,5.629999999999924,0.094
264,5.639999999999924,0.0985
265,5.649999999999924,0.104
266,5.659999999999924,0.107
267,5.6699999999999235,0.1015
268,5.679999999999923,0.098
269,5.689999999999923,0.099
270,5.699999999999923,0.095
271,5.709999999999923,0.094
272,5.7199999999999225,0.092
273,5.729999999999922,0.092
274,5.739999999999922,0.0955
275,5.749999999999922,0.0925
276,5.759999999999922,0.097
277,5.769999999999921,0.0955
278,5.779999999999921,0.087
279,5.789999999999921,0.092
280,5.799999999999921,0.096
281,5.809999999999921,0.1045
282,5.81999999999992,0.1065
283,5.82999999999992,0.1035
284,5.83999999999992,0.1005
285,5.84999999999992,0.096
286,5.8599999999999195,0.1
287,5.869999999999919,0.104
288,5.879999999999919,0.104
289,5.889999999999919,0.101
290,5.899999999999919,0.1025
291,5.909999999999918,0.0985
292,5.919999999999918,0.0935
293,5.929999999999918,0.093
294,5.939999999999918,0.092
295,5.949999999999918,0.0925
296,5.959999999999917,0.0885
297,5.969999999999917,0.0885
298,5.979999999999917,0.089
299,5.989999999999917,0.0925
300,5.9999999999999165,0.1
301,6.009999999999916,0.096
302,6.019999999999916,0.0915
303,6.029999999999916,0.0935
304,6.039999999999916,0.0925
305,6.0499999999999154,0.0925
306,6.059999999999915,0.0985
307,6.069999999999915,0.098
308,6.079999999999915,0.0955
309,6.089999999999915,0.101
310,6.099999999999914,0.099
311,6.109999999999914,0.0965
312,6.119999999999914,0.0985
313,6.129999999999914,0.0965
314,6.1399999999999135,0.0955
315,6.149999999999913,0.099
316,6.159999999999913,0.0935
317,6.169999999999913,0.089
318,6.179999999999913,0.096
319,6.1899999999999125,0.096
320,6.199999999999912,0.095
321,6.209999999999912,0.0965
322,6.219999999999912,0.0975
323,6.229999999999912,0.098
324,6.239999999999911,0.1
325,6.249999999999911,0.109
326,6.259999999999911,0.111
327,6.269999999999911,0.1065
328,6.2799999999999105,0.1145
329,6.28999999999991,0.118
330,6.29999999999991,0.113
331,6.30999999999991,0.114
332,6.31999999999991,0.106
333,6.3299999999999095,0.1085
334,6.339999999999909,0.1145
335,6.349999999999909,0.1135
336,6.359999999999909,0.1175
337,6.369999999999909,0.116
338,6.379999999999908,0.1115
339,6.389999999999908,0.12
340,6.399999999999908,0.1195
341,6.409999999999908,0.1115
342,6.419999999999908,0.1165
343,6.429999999999907,0.1205
344,6.439999999999907,0.1235
345,6.449999999999907,0.1315
346,6.459999999999907,0.1415
347,6.4699999999999065,0.138
348,6.479999999999906,0.1375
349,6.489999999999906,0.1425
350,6.499999999999906,0.1335
351,6.509999999999906,0.133
352,6.519999999999905,0.138
353,6.529999999999905,0.1325
354,6.539999999999905,0.124
355,6.549999999999905,0.126
356,6.559999999999905,0.1345
357,6.569999999999904,0.1355
358,6.579999999999904,0.136
359,6.589999999999904,0.142
360,6.599999999999904,0.144
361,6.6099999999999035,0.147
362,6.619999999999903,0.149
363,6.629999999999903,0.1535
364,6.639999999999903,0.1615
365,6.649999999999903,0.166
366,6.659999999999902,0.1715
367,6.669999999999902,0.176
368,6.679999999999902,0.171
369,6.689999999999902,0.1705
370,6.699999999999902,0.177
371,6.709999999999901,0.175
372,6.719999999999901,0.1755
373,6.729999999999901,0.1765
374,6.739999999999901,0.174
375,6.7499999999999005,0.174
376,6.7599999999999,0.172
377,6.7699999999999,0.1695
378,6.7799999999999,0.165
379,6.7899999999999,0.1675
380,6.7999999999998995,0.1685
381,6.809999999999899,0.169
382,6.819999999999899,0.172
383,6.829999999999899,0.177
384,6.839999999999899,0.181
385,6.849999999999898,0.179
386,6.859999999999898,0.1845
387,6.869999999999898,0.187
388,6.879999999999898,0.1815
389,6.8899999999998975,0.176
390,6.899999999999897,0.177
391,6.909999999999897,0.178
392,6.919999999999897,0.1695
393,6.929999999999897,0.1605
394,6.9399999999998965,0.155
395,6.949999999999896,0.1575
396,6.959999999999896,0.156
397,6.969999999999896,0.1505
398,6.979999999999896,0.148
399,6.989999999999895,0.1435
400,6.999999999999895,0.1395
401,7.009999999999895,0.1325
402,7.019999999999895,0.1325
403,7.0299999999998946,0.1355
404,7.039999999999894,0.1345
405,7.049999999999894,0.129
406,7.059999999999894,0.1295
407,7.069999999999894,0.1325
408,7.0799999999998935,0.131
409,7.089999999999893,0.138
410,7.099999999999893,0.1345
411,7.109999999999893,0.1245
412,7.119999999999893,0.117
413,7.129999999999892,0.112
414,7.139999999999892,0.113
415,7.149999999999892,0.108
416,7.159999999999892,0.1065
417,7.169999999999892,0.0995
418,7.179999999999891,0.0955
419,7.189999999999891,0.0955
420,7.199999999999891,0.0915
421,7.209999999999891,0.095
422,7.2199999999998905,0.093
423,7.22999999999989,0.094
424,7.23999999999989,0.0965
425,7.24999999999989,0.096
426,7.25999999999989,0.0915
427,7.269999999999889,0.0885
428,7.279999999999889,0.0955
429,7.289999999999889,0.09
430,7.299999999999889,0.088
431,7.309999999999889,0.0895
432,7.319999999999888,0.087
433,7.329999999999888,0.082
434,7.339999999999888,0.0715
435,7.349999999999888,0.0725
436,7.3599999999998875,0.073
437,7.369999999999887,0.0725
438,7.379999999999887,0.083
439,7.389999999999887,0.079
440,7.399999999999887,0.073
441,7.4099999999998865,0.0765
442,7.419999999999886,0.0755
443,7.429999999999886,0.0825
444,7.439999999999886,0.079
445,7.449999999999886,0.0815
446,7.459999999999885,0.086
447,7.469999999999885,0.0755
448,7.479999999999885,0.083
449,7.489999999999885,0.0865
450,7.4999999999998845,0.0785
451,7.509999999999884,0.075
452,7.519999999999884,0.0735
453,7.529999999999884,0.077
454,7.539999999999884,0.0775
455,7.5499999999998835,0.0695
456,7.559999999999883,0.0625
457,7.569999999999883,0.0595
458,7.579999999999883,0.058
459,7.589999999999883,0.0565
460,7.599999999999882,0.051
461,7.609999999999882,0.0505
462,7.619999999999882,0.0545
463,7.629999999999882,0.0575
464,7.6399999999998816,0.0615
465,7.649999999999881,0.063
466,7.659999999999881,0.071
467,7.669999999999881,0.0745
468,7.679999999999881,0.074
469,7.6899999999998805,0.0795
470,7.69999999999988,0.0895
471,7.70999999999988,0.1035
472,7.71999999999988,0.111
473,7.72999999999988,0.12
474,7.739999999999879,0.129
475,7.749999999999879,0.139
476,7.759999999999879,0.1525
477,7.769999999999879,0.1605
478,7.779999999999879,0.173
479,7.789999999999878,0.1995
480,7.799999999999878,0.2345
481,7.809999999999878,0.267
482,7.819999999999878,0.2985
483,7.8299999999998775,0.3255
484,7.839999999999877,0.349
485,7.849999999999877,0.3845
486,7.859999999999877,0.435
487,7.869999999999877,0.51
488,7.879999999999876,0.565
489,7.889999999999876,0.602
490,7.899999999999876,0.6385
491,7.909999999999876,0.677
492,7.919999999999876,0.707
493,7.929999999999875,0.6955
494,7.939999999999875,0.699
495,7.949999999999875,0.695
496,7.959999999999875,0.664
497,7.9699999999998745,0.635
498,7.979999999999874,0.585
499,7.989999999999874,0.526
500,7.999999999999874,0.484
501,8.009999999999874,0.449
502,8.019999999999873,0.4065
503,8.029999999999873,0.377
504,8.039999999999873,0.3655
505,8.049999999999873,0.3385
506,8.059999999999873,0.2995
507,8.069999999999872,0.2835
508,8.079999999999872,0.2655
509,8.089999999999872,0.245
510,8.099999999999872,0.222
511,8.109999999999872,0.1885
512,8.119999999999871,0.162
513,8.129999999999871,0.146
514,8.139999999999871,0.1185
515,8.14999999999987,0.0825
516,8.15999999999987,0.0605
517,8.16999999999987,0.033
518,8.17999999999987,0.0185
519,8.18999999999987,0.0165
520,8.19999999999987,0.013
521,8.20999999999987,0.018
522,8.21999999999987,0.0105
523,8.229999999999869,0.0075
524,8.239999999999869,0.0095
525,8.249999999999869,0.0105
526,8.259999999999868,0.0185
527,8.269999999999868,0.0225
528,8.279999999999868,0.027
529,8.289999999999868,0.033
530,8.299999999999867,0.0355
531,8.309999999999867,0.031
532,8.319999999999867,0.0265
533,8.329999999999867,0.0355
534,8.339999999999867,0.0495
535,8.349999999999866,0.0495
536,8.359999999999866,0.0545
537,8.369999999999866,0.0575
538,8.379999999999866,0.052
539,8.389999999999866,0.0565
540,8.399999999999865,0.0595
541,8.409999999999865,0.0565
542,8.419999999999865,0.056
543,8.429999999999865,0.0635
544,8.439999999999864,0.066
545,8.449999999999864,0.064
546,8.459999999999864,0.068
547,8.469999999999864,0.07
548,8.479999999999864,0.0695
549,8.489999999999863,0.071
550,8.499999999999863,0.0725
551,8.509999999999863,0.069
552,8.519999999999863,0.074
553,8.529999999999863,0.078
554,8.539999999999862,0.073
555,8.549999999999862,0.0735
556,8.559999999999862,0.08
557,8.569999999999862,0.0815
558,8.579999999999862,0.0785
559,8.589999999999861,0.0735
560,8.599999999999861,0.068
561,8.60999999999986,0.073
562,8.61999999999986,0.0765
563,8.62999999999986,0.085
564,8.63999999999986,0.0855
565,8.64999999999986,0.079
566,8.65999999999986,0.076
567,8.66999999999986,0.076
568,8.67999999999986,0.078
569,8.68999999999986,0.075
570,8.699999999999859,0.0745
571,8.709999999999859,0.0765
572,8.719999999999859,0.0795
573,8.729999999999858,0.0745
574,8.739999999999858,0.0725
575,8.749999999999858,0.0775
576,8.759999999999858,0.078
577,8.769999999999857,0.0695
578,8.779999999999857,0.0695
579,8.789999999999857,0.0745
580,8.799999999999857,0.071
581,8.809999999999857,0.0695
582,8.819999999999856,0.0715
583,8.829999999999856,0.0745
584,8.839999999999856,0.0705
585,8.849999999999856,0.067
586,8.859999999999856,0.0745
587,8.869999999999855,0.082
588,8.879999999999855,0.076
589,8.889999999999855,0.0715
590,8.899999999999855,0.0745
591,8.909999999999854,0.078
592,8.919999999999854,0.0785
593,8.929999999999854,0.0765
594,8.939999999999854,0.0765
595,8.949999999999854,0.0735
596,8.959999999999853,0.0725
597,8.969999999999853,0.0665
598,8.979999999999853,0.065
599,8.989999999999853,0.069
600,8.999999999999853,0.069
601,9.009999999999852,0.0775
602,9.019999999999852,0.0805
603,9.029999999999852,0.067
604,9.039999999999852,0.072
605,9.049999999999851,0.0835
606,9.059999999999851,0.0775
607,9.069999999999851,0.076
608,9.07999999999985,0.075
609,9.08999999999985,0.071
610,9.09999999999985,0.069
611,9.10999999999985,0.07
612,9.11999999999985,0.072
613,9.12999999999985,0.0735
614,9.13999999999985,0.071
615,9.14999999999985,0.067
616,9.15999999999985,0.0655
617,9.169999999999849,0.061
618,9.179999999999849,0.0655
619,9.189999999999849,0.0695
620,9.199999999999848,0.0675
621,9.209999999999848,0.065
622,9.219999999999848,0.0615
623,9.229999999999848,0.0685
624,9.239999999999847,0.0735
625,9.249999999999847,0.0715
626,9.259999999999847,0.071
627,9.269999999999847,0.0705
628,9.279999999999847,0.0685
629,9.289999999999846,0.07
630,9.299999999999846,0.0715
631,9.309999999999846,0.0725
632,9.319999999999846,0.0755
633,9.329999999999846,0.0675
634,9.339999999999845,0.0685
635,9.349999999999845,0.0755
636,9.359999999999845,0.0725
637,9.369999999999845,0.064
638,9.379999999999844,0.066
639,9.389999999999844,0.0695
640,9.399999999999844,0.068
641,9.409999999999844,0.07
642,9.419999999999844,0.068
643,9.429999999999843,0.0755
644,9.439999999999843,0.076
645,9.449999999999843,0.074
646,9.459999999999843,0.077
647,9.469999999999843,0.078
648,9.479999999999842,0.0785
649,9.489999999999842,0.083
650,9.499999999999842,0.0855
651,9.509999999999842,0.077
652,9.519999999999841,0.073
653,9.529999999999841,0.0775
654,9.539999999999841,0.0795
655,9.54999999999984,0.0805
656,9.55999999999984,0.079
657,9.56999999999984,0.0785
658,9.57999999999984,0.0855
659,9.58999999999984,0.0865
660,9.59999999999984,0.0825
661,9.60999999999984,0.081
662,9.61999999999984,0.0885
663,9.62999999999984,0.09
664,9.639999999999839,0.0875
665,9.649999999999839,0.092
666,9.659999999999838,0.0935
667,9.669999999999838,0.0945
668,9.679999999999838,0.0905
669,9.689999999999838,0.086
670,9.699999999999838,0.094
671,9.709999999999837,0.096
672,9.719999999999837,0.092
673,9.729999999999837,0.091
674,9.739999999999837,0.0905
675,9.749999999999837,0.0995
676,9.759999999999836,0.1
677,9.769999999999836,0.0965
678,9.779999999999836,0.1015
679,9.789999999999836,0.1015
680,9.799999999999836,0.1025
681,9.809999999999835,0.1
682,9.819999999999835,0.103
683,9.829999999999835,0.112
684,9.839999999999835,0.1115
685,9.849999999999834,0.1165
686,9.859999999999834,0.117
687,9.869999999999834,0.1115
688,9.879999999999834,0.1145
689,9.889999999999834,0.1125
690,9.899999999999833,0.113
691,9.909999999999833,0.1235
692,9.919999999999833,0.1225
693,9.929999999999833,0.1215
694,9.939999999999833,0.133
695,9.949999999999832,0.1295
696,9.959999999999832,0.1275
697,9.969999999999832,0.132
698,9.979999999999832,0.1285
699,9.989999999999831,0.1295
700,9.999999999999831,0.1345
701,10.009999999999831,0.137
702,10.01999999999983,0.1385
703,10.02999999999983,0.1415
704,10.03999999999983,0.1415
705,10.04999999999983,0.1425
706,10.05999999999983,0.149
707,10.06999999999983,0.1555
708,10.07999999999983,0.1535
709,10.08999999999983,0.157
710,10.09999999999983,0.165
711,10.109999999999829,0.16
712,10.119999999999829,0.1555
713,10.129999999999828,0.16
714,10.139999999999828,0.164
715,10.149999999999828,0.1655
716,10.159999999999828,0.167
717,10.169999999999828,0.165
718,10.179999999999827,0.1665
719,10.189999999999827,0.1735
720,10.199999999999827,0.173
721,10.209999999999827,0.1735
722,10.219999999999827,0.1835
723,10.229999999999826,0.184
724,10.239999999999826,0.179
725,10.249999999999826,0.185
726,10.259999999999826,0.191
727,10.269999999999825,0.1915
728,10.279999999999825,0.192
729,10.289999999999825,0.1945
730,10.299999999999825,0.196
731,10.309999999999825,0.1985
732,10.319999999999824,0.1965
733,10.329999999999824,0.1985
734,10.339999999999824,0.2
735,10.349999999999824,0.2
736,10.359999999999824,0.2015
737,10.369999999999823,0.2
738,10.379999999999823,0.2055
739,10.389999999999823,0.2085
740,10.399999999999823,0.2125
741,10.409999999999823,0.2135
742,10.419999999999822,0.2125
743,10.429999999999822,0.216
744,10.439999999999822,0.22
745,10.449999999999822,0.2155
746,10.459999999999821,0.2175
747,10.469999999999821,0.224
748,10.479999999999821,0.2205
749,10.48999999999982,0.2275
750,10.49999999999982,0.2235
751,10.50999999999982,0.224
752,10.51999999999982,0.225
753,10.52999999999982,0.219
754,10.53999999999982,0.2205
755,10.54999999999982,0.2205
756,10.55999999999982,0.221
757,10.569999999999819,0.221
758,10.579999999999819,0.2235
759,10.589999999999819,0.2195
760,10.599999999999818,0.217
761,10.609999999999818,0.2225
762,10.619999999999818,0.2275
763,10.629999999999818,0.228
764,10.639999999999818,0.2265
765,10.649999999999817,0.2285
766,10.659999999999817,0.2325
767,10.669999999999817,0.2305
768,10.679999999999817,0.2265
769,10.689999999999817,0.2255
770,10.699999999999816,0.2185
771,10.709999999999816,0.2215
772,10.719999999999816,0.222
773,10.729999999999816,0.213
774,10.739999999999815,0.212
775,10.749999999999815,0.2065
776,10.759999999999815,0.205
777,10.769999999999815,0.207
778,10.779999999999815,0.2025
779,10.789999999999814,0.203
780,10.799999999999814,0.202
781,10.809999999999814,0.2005
782,10.819999999999814,0.204
783,10.829999999999814,0.203
784,10.839999999999813,0.202
785,10.849999999999813,0.1995
786,10.859999999999813,0.195
787,10.869999999999813,0.196
788,10.879999999999812,0.185
789,10.889999999999812,0.1755
790,10.899999999999812,0.172
791,10.909999999999812,0.1665
792,10.919999999999812,0.1675
793,10.929999999999811,0.169
794,10.939999999999811,0.1635
795,10.949999999999811,0.1565
796,10.95999999999981,0.154
797,10.96999999999981,0.149
798,10.97999999999981,0.1505
799,10.98999999999981,0.147
800,10.99999999999981,0.1405
801,11.00999999999981,0.147
802,11.01999999999981,0.152
803,11.02999999999981,0.146
804,11.039999999999809,0.1385
805,11.049999999999809,0.135
806,11.059999999999809,0.132
807,11.069999999999808,0.126
808,11.079999999999808,0.124
809,11.089999999999808,0.1305
810,11.099999999999808,0.1275
811,11.109999999999808,0.122
812,11.119999999999807,0.1205
813,11.129999999999807,0.116
814,11.139999999999807,0.114
815,11.149999999999807,0.1105
816,11.159999999999807,0.109
817,11.169999999999806,0.107
818,11.179999999999806,0.11
819,11.189999999999806,0.11
820,11.199999999999806,0.1035
821,11.209999999999805,0.0995
822,11.219999999999805,0.101
823,11.229999999999805,0.11
824,11.239999999999805,0.106
825,11.249999999999805,0.1025
826,11.259999999999804,0.1065
827,11.269999999999804,0.1045
828,11.279999999999804,0.105
829,11.289999999999804,0.104
830,11.299999999999804,0.1025
831,11.309999999999803,0.102
832,11.319999999999803,0.104
833,11.329999999999803,0.105
834,11.339999999999803,0.103
835,11.349999999999802,0.103
836,11.359999999999802,0.1035
837,11.369999999999802,0.101
838,11.379999999999802,0.0995
839,11.389999999999802,0.1015
840,11.399999999999801,0.106
841,11.409999999999801,0.111
842,11.419999999999801,0.1065
843,11.4299999999998,0.0945
844,11.4399999999998,0.096
845,11.4499999999998,0.1025
846,11.4599999999998,0.1
847,11.4699999999998,0.098
848,11.4799999999998,0.098
849,11.4899999999998,0.1
850,11.4999999999998,0.0955
851,11.509999999999799,0.0915
852,11.519999999999799,0.093
853,11.529999999999799,0.0965
854,11.539999999999798,0.095
855,11.549999999999798,0.0935
856,11.559999999999798,0.0915
857,11.569999999999798,0.0885
858,11.579999999999798,0.092
859,11.589999999999797,0.093
860,11.599999999999797,0.099
861,11.609999999999797,0.099
862,11.619999999999797,0.096
863,11.629999999999797,0.1
864,11.639999999999796,0.0965
865,11.649999999999796,0.095
866,11.659999999999796,0.0945
867,11.669999999999796,0.0945
868,11.679999999999795,0.09
869,11.689999999999795,0.094
870,11.699999999999795,0.0965
871,11.709999999999795,0.085
872,11.719999999999795,0.088
873,11.729999999999794,0.0915
874,11.739999999999794,0.0885
875,11.749999999999794,0.089
876,11.759999999999794,0.093
877,11.769999999999794,0.094
878,11.779999999999793,0.096
879,11.789999999999793,0.0955
880,11.799999999999793,0.09
881,11.809999999999793,0.0905
882,11.819999999999792,0.094
883,11.829999999999792,0.0965
884,11.839999999999792,0.097
885,11.849999999999792,0.096
886,11.859999999999792,0.093
887,11.869999999999791,0.0945
888,11.879999999999791,0.101
889,11.889999999999791,0.1025
890,11.89999999999979,0.097
891,11.90999999999979,0.0965
892,11.91999999999979,0.0965
893,11.92999999999979,0.09
894,11.93999999999979,0.0945
895,11.94999999999979,0.095
896,11.95999999999979,0.0915
897,11.96999999999979,0.097
898,11.979999999999789,0.096
899,11.989999999999789,0.0915
900,11.999999999999789,0.0965
901,12.009999999999788,0.101
902,12.019999999999788,0.0955
903,12.029999999999788,0.096
904,12.039999999999788,0.098
905,12.049999999999788,0.0975
906,12.059999999999787,0.092
907,12.069999999999787,0.097
908,12.079999999999787,0.1055
909,12.089999999999787,0.104
910,12.099999999999786,0.1085
911,12.109999999999786,0.104
912,12.119999999999786,0.099
913,12.129999999999786,0.104
914,12.139999999999786,0.1
915,12.149999999999785,0.0965
916,12.159999999999785,0.098
917,12.169999999999785,0.098
918,12.179999999999785,0.098
919,12.189999999999785,0.0965
920,12.199999999999784,0.095
921,12.209999999999784,0.0945
922,12.219999999999784,0.096
923,12.229999999999784,0.099
924,12.239999999999783,0.0955
925,12.249999999999783,0.097
926,12.259999999999783,0.1015
927,12.269999999999783,0.093
928,12.279999999999783,0.089
929,12.289999999999782,0.089
930,12.299999999999782,0.089
931,12.309999999999782,0.0965
932,12.319999999999782,0.0945
933,12.329999999999782,0.0895
934,12.339999999999781,0.0905
935,12.349999999999781,0.0955
936,12.359999999999781,0.0915
937,12.36999999999978,0.088
938,12.37999999999978,0.0895
939,12.38999999999978,0.0845
940,12.39999999999978,0.0935
941,12.40999999999978,0.0985
942,12.41999999999978,0.0985
943,12.42999999999978,0.101
944,12.43999999999978,0.0955
945,12.449999999999779,0.091
946,12.459999999999779,0.091
947,12.469999999999779,0.0935
948,12.479999999999778,0.097
949,12.489999999999778,0.0935
