,Time,Value
0,8.829999999999856,0.017
1,8.839999999999856,0.016
2,8.849999999999856,0.015
3,8.859999999999856,0.01
4,8.869999999999855,0.005
5,8.879999999999855,0.008
6,8.889999999999855,0.011
7,8.899999999999855,0.011
8,8.909999999999854,0.011
9,8.919999999999854,0.0105
10,8.929999999999854,0.0105
11,8.939999999999854,0.008
12,8.949999999999854,0.0035
13,8.959999999999853,0.006
14,8.969999999999853,0.011
15,8.979999999999853,0.012
16,8.989999999999853,0.0135
17,8.999999999999853,0.014
18,9.009999999999852,0.014
19,9.019999999999852,0.0145
20,9.029999999999852,0.011
21,9.039999999999852,0.0115
22,9.049999999999851,0.014
23,9.059999999999851,0.0105
24,9.069999999999851,0.011
25,9.07999999999985,0.0115
26,9.08999999999985,0.0085
27,9.09999999999985,0.008
28,9.10999999999985,0.0115
29,9.11999999999985,0.0105
30,9.12999999999985,0.0075
31,9.13999999999985,0.008
32,9.14999999999985,0.0095
33,9.15999999999985,0.0075
34,9.169999999999849,0.005
35,9.179999999999849,0.0075
36,9.189999999999849,0.0075
37,9.199999999999848,0.01
38,9.209999999999848,0.015
39,9.219999999999848,0.015
40,9.229999999999848,0.013
41,9.239999999999847,0.0115
42,9.249999999999847,0.0145
43,9.259999999999847,0.017
44,9.269999999999847,0.012
45,9.279999999999847,0.013
46,9.289999999999846,0.011
47,9.299999999999846,0.003
48,9.309999999999846,0.0025
49,9.319999999999846,0.006
50,9.329999999999846,0.009
51,9.339999999999845,0.005
52,9.349999999999845,0.003
53,9.359999999999845,0.0025
54,9.369999999999845,-0.001
55,9.379999999999844,-0.0015
56,9.389999999999844,0.005
57,9.399999999999844,0.0115
58,9.409999999999844,0.0115
59,9.419999999999844,0.01
60,9.429999999999843,0.0055
61,9.439999999999843,0.002
62,9.449999999999843,0.007
63,9.459999999999843,0.0215
64,9.469999999999843,0.0285
65,9.479999999999842,0.029
66,9.489999999999842,0.0245
67,9.499999999999842,0.0165
68,9.509999999999842,0.012
69,9.519999999999841,0.0075
70,9.529999999999841,0.0105
71,9.539999999999841,0.0105
72,9.54999999999984,0.009
73,9.55999999999984,0.0075
74,9.56999999999984,0.0035
75,9.57999999999984,0.0075
76,9.58999999999984,0.012
77,9.59999999999984,0.0105
78,9.60999999999984,0.0075
79,9.61999999999984,0.009
80,9.62999999999984,0.007
81,9.639999999999839,0.006
82,9.649999999999839,0.011
83,9.659999999999838,0.0145
84,9.669999999999838,0.018
85,9.679999999999838,0.023
86,9.689999999999838,0.024
87,9.699999999999838,0.021
88,9.709999999999837,0.018
89,9.719999999999837,0.0205
90,9.729999999999837,0.0225
91,9.739999999999837,0.021
92,9.749999999999837,0.021
93,9.759999999999836,0.013
94,9.769999999999836,0.0125
95,9.779999999999836,0.016
96,9.789999999999836,0.0125
97,9.799999999999836,0.0155
98,9.809999999999835,0.017
99,9.819999999999835,0.0175
100,9.829999999999835,0.0175
101,9.839999999999835,0.0195
102,9.849999999999834,0.022
103,9.859999999999834,0.023
104,9.869999999999834,0.0205
105,9.879999999999834,0.0145
106,9.889999999999834,0.012
107,9.899999999999833,0.012
108,9.909999999999833,0.018
109,9.919999999999833,0.021
110,9.929999999999833,0.018
111,9.939999999999833,0.0195
112,9.949999999999832,0.023
113,9.959999999999832,0.019
114,9.969999999999832,0.018
115,9.979999999999832,0.021
116,9.989999999999831,0.02
117,9.999999999999831,0.018
118,10.009999999999831,0.018
119,10.01999999999983,0.02
120,10.02999999999983,0.02
121,10.03999999999983,0.017
122,10.04999999999983,0.02
123,10.05999999999983,0.0225
124,10.06999999999983,0.0225
125,10.07999999999983,0.025
126,10.08999999999983,0.0235
127,10.09999999999983,0.022
128,10.109999999999829,0.022
129,10.119999999999829,0.0275
130,10.129999999999828,0.028
131,10.139999999999828,0.025
132,10.149999999999828,0.0235
133,10.159999999999828,0.022
134,10.169999999999828,0.023
135,10.179999999999827,0.02
136,10.189999999999827,0.0175
137,10.199999999999827,0.016
138,10.209999999999827,0.0175
139,10.219999999999827,0.0255
140,10.229999999999826,0.028
141,10.239999999999826,0.026
142,10.249999999999826,0.0275
143,10.259999999999826,0.025
144,10.269999999999825,0.021
145,10.279999999999825,0.0205
146,10.289999999999825,0.0195
147,10.299999999999825,0.0165
148,10.309999999999825,0.012
149,10.319999999999824,0.0085
150,10.329999999999824,0.0105
151,10.339999999999824,0.009
152,10.349999999999824,0.0055
153,10.359999999999824,0.009
154,10.369999999999823,0.0135
155,10.379999999999823,0.019
156,10.389999999999823,0.016
157,10.399999999999823,0.014
158,10.409999999999823,0.0185
159,10.419999999999822,0.021
160,10.429999999999822,0.0215
161,10.439999999999822,0.0265
162,10.449999999999822,0.037
163,10.459999999999821,0.035
164,10.469999999999821,0.026
165,10.479999999999821,0.0215
166,10.48999999999982,0.017
167,10.49999999999982,0.0195
168,10.50999999999982,0.021
169,10.51999999999982,0.02
170,10.52999999999982,0.025
171,10.53999999999982,0.03
172,10.54999999999982,0.026
173,10.55999999999982,0.0205
174,10.569999999999819,0.024
175,10.579999999999819,0.024
176,10.589999999999819,0.0235
177,10.599999999999818,0.026
178,10.609999999999818,0.028
179,10.619999999999818,0.025
180,10.629999999999818,0.0255
181,10.639999999999818,0.0295
182,10.649999999999817,0.0235
183,10.659999999999817,0.0265
184,10.669999999999817,0.0325
185,10.679999999999817,0.031
186,10.689999999999817,0.032
187,10.699999999999816,0.0335
188,10.709999999999816,0.03
189,10.719999999999816,0.0275
190,10.729999999999816,0.0295
191,10.739999999999815,0.028
192,10.749999999999815,0.0245
193,10.759999999999815,0.0265
194,10.769999999999815,0.0285
195,10.779999999999815,0.0275
196,10.789999999999814,0.0275
197,10.799999999999814,0.026
198,10.809999999999814,0.035
199,10.819999999999814,0.0415
200,10.829999999999814,0.0385
201,10.839999999999813,0.0405
202,10.849999999999813,0.039
203,10.859999999999813,0.038
204,10.869999999999813,0.037
205,10.879999999999812,0.0375
206,10.889999999999812,0.0345
207,10.899999999999812,0.0305
208,10.909999999999812,0.031
209,10.919999999999812,0.033
210,10.929999999999811,0.04
211,10.939999999999811,0.043
212,10.949999999999811,0.046
213,10.95999999999981,0.047
214,10.96999999999981,0.0425
215,10.97999999999981,0.0495
216,10.98999999999981,0.064
217,10.99999999999981,0.0705
218,11.00999999999981,0.071
219,11.01999999999981,0.0715
220,11.02999999999981,0.0705
221,11.039999999999809,0.0695
222,11.049999999999809,0.068
223,11.059999999999809,0.068
224,11.069999999999808,0.0585
225,11.079999999999808,0.054
226,11.089999999999808,0.062
227,11.099999999999808,0.0615
228,11.109999999999808,0.0625
229,11.119999999999807,0.066
230,11.129999999999807,0.0665
231,11.139999999999807,0.067
232,11.149999999999807,0.067
233,11.159999999999807,0.069
234,11.169999999999806,0.077
235,11.179999999999806,0.077
236,11.189999999999806,0.0755
237,11.199999999999806,0.0755
238,11.209999999999805,0.0715
239,11.219999999999805,0.0735
240,11.229999999999805,0.073
241,11.239999999999805,0.0725
242,11.249999999999805,0.072
243,11.259999999999804,0.0745
244,11.269999999999804,0.079
245,11.279999999999804,0.081
246,11.289999999999804,0.0815
247,11.299999999999804,0.082
248,11.309999999999803,0.0815
249,11.319999999999803,0.0815
250,11.329999999999803,0.0795
251,11.339999999999803,0.0745
252,11.349999999999802,0.0765
253,11.359999999999802,0.0795
254,11.369999999999802,0.0825
255,11.379999999999802,0.0795
256,11.389999999999802,0.0785
257,11.399999999999801,0.0855
258,11.409999999999801,0.0855
259,11.419999999999801,0.088
260,11.4299999999998,0.092
261,11.4399999999998,0.094
262,11.4499999999998,0.095
263,11.4599999999998,0.0945
264,11.4699999999998,0.0905
265,11.4799999999998,0.088
266,11.4899999999998,0.0875
267,11.4999999999998,0.0825
268,11.509999999999799,0.0775
269,11.519999999999799,0.0735
270,11.529999999999799,0.075
271,11.539999999999798,0.075
272,11.549999999999798,0.0725
273,11.559999999999798,0.073
274,11.569999999999798,0.0735
275,11.579999999999798,0.0735
276,11.589999999999797,0.0685
277,11.599999999999797,0.062
278,11.609999999999797,0.056
279,11.619999999999797,0.05
280,11.629999999999797,0.05
281,11.639999999999796,0.05
282,11.649999999999796,0.046
283,11.659999999999796,0.0445
284,11.669999999999796,0.042
285,11.679999999999795,0.0395
286,11.689999999999795,0.0385
287,11.699999999999795,0.0355
288,11.709999999999795,0.028
289,11.719999999999795,0.0265
290,11.729999999999794,0.0285
291,11.739999999999794,0.0245
292,11.749999999999794,0.023
293,11.759999999999794,0.023
294,11.769999999999794,0.0215
295,11.779999999999793,0.024
296,11.789999999999793,0.0245
297,11.799999999999793,0.023
298,11.809999999999793,0.027
299,11.819999999999792,0.029
300,11.829999999999792,0.0245
301,11.839999999999792,0.0205
302,11.849999999999792,0.0235
303,11.859999999999792,0.0265
304,11.869999999999791,0.022
305,11.879999999999791,0.024
306,11.889999999999791,0.021
307,11.89999999999979,0.016
308,11.90999999999979,0.015
309,11.91999999999979,0.014
310,11.92999999999979,0.0215
311,11.93999999999979,0.024
312,11.94999999999979,0.023
313,11.95999999999979,0.0185
314,11.96999999999979,0.0125
315,11.979999999999789,0.0115
316,11.989999999999789,0.0145
317,11.999999999999789,0.016
318,12.009999999999788,0.0155
319,12.019999999999788,0.017
320,12.029999999999788,0.018
321,12.039999999999788,0.0195
322,12.049999999999788,0.022
323,12.059999999999787,0.02
324,12.069999999999787,0.017
325,12.079999999999787,0.016
326,12.089999999999787,0.016
327,12.099999999999786,0.0155
328,12.109999999999786,0.0145
329,12.119999999999786,0.02
330,12.129999999999786,0.0225
331,12.139999999999786,0.0225
332,12.149999999999785,0.024
333,12.159999999999785,0.0235
334,12.169999999999785,0.026
335,12.179999999999785,0.0245
336,12.189999999999785,0.0215
337,12.199999999999784,0.028
338,12.209999999999784,0.0305
339,12.219999999999784,0.031
340,12.229999999999784,0.037
341,12.239999999999783,0.04
342,12.249999999999783,0.042
343,12.259999999999783,0.044
344,12.269999999999783,0.043
345,12.279999999999783,0.0455
346,12.289999999999782,0.0495
347,12.299999999999782,0.0555
348,12.309999999999782,0.0725
349,12.319999999999782,0.0845
350,12.329999999999782,0.078
351,12.339999999999781,0.0765
352,12.349999999999781,0.0815
353,12.359999999999781,0.081
354,12.36999999999978,0.0865
355,12.37999999999978,0.1115
356,12.38999999999978,0.1295
357,12.39999999999978,0.134
358,12.40999999999978,0.158
359,12.41999999999978,0.1925
360,12.42999999999978,0.2185
361,12.43999999999978,0.2405
362,12.449999999999779,0.2815
363,12.459999999999779,0.323
364,12.469999999999779,0.353
365,12.479999999999778,0.3895
366,12.489999999999778,0.4245
367,12.499999999999778,0.4585
368,12.509999999999778,0.4975
369,12.519999999999778,0.539
370,12.529999999999777,0.5725
371,12.539999999999777,0.604
372,12.549999999999777,0.6335
373,12.559999999999777,0.6485
374,12.569999999999776,0.6725
375,12.579999999999776,0.72
376,12.589999999999776,0.748
377,12.599999999999776,0.737
378,12.609999999999776,0.677
379,12.619999999999775,0.601
380,12.629999999999775,0.523
381,12.639999999999775,0.4365
382,12.649999999999775,0.384
383,12.659999999999775,0.3295
384,12.669999999999774,0.282
385,12.679999999999774,0.235
386,12.689999999999774,0.154
387,12.699999999999774,0.095
388,12.709999999999773,0.046
389,12.719999999999773,-0.017
390,12.729999999999773,-0.087
391,12.739999999999773,-0.157
392,12.749999999999773,-0.214
393,12.759999999999772,-0.2495
394,12.769999999999772,-0.262
395,12.779999999999772,-0.283
396,12.789999999999772,-0.313
397,12.799999999999772,-0.3175
398,12.809999999999771,-0.306
399,12.819999999999771,-0.2935
400,12.829999999999771,-0.267
401,12.83999999999977,-0.24
402,12.84999999999977,-0.2155
403,12.85999999999977,-0.1855
404,12.86999999999977,-0.1625
405,12.87999999999977,-0.144
406,12.88999999999977,-0.12
407,12.89999999999977,-0.103
408,12.90999999999977,-0.0975
409,12.919999999999769,-0.09
410,12.929999999999769,-0.084
411,12.939999999999769,-0.0835
412,12.949999999999768,-0.0805
413,12.959999999999768,-0.072
414,12.969999999999768,-0.0585
415,12.979999999999768,-0.049
416,12.989999999999768,-0.0415
417,12.999999999999767,-0.028
418,13.009999999999767,-0.0235
419,13.019999999999767,-0.0225
420,13.029999999999767,-0.019
421,13.039999999999766,-0.0165
422,13.049999999999766,-0.014
423,13.059999999999766,-0.0115
424,13.069999999999766,-0.011
425,13.079999999999766,-0.0135
426,13.089999999999765,-0.019
427,13.099999999999765,-0.0235
428,13.109999999999765,-0.0245
429,13.119999999999765,-0.0255
430,13.129999999999765,-0.0195
431,13.139999999999764,-0.0135
432,13.149999999999764,-0.0125
433,13.159999999999764,-0.0085
434,13.169999999999764,-0.004
435,13.179999999999763,-0.01
436,13.189999999999763,-0.018
437,13.199999999999763,-0.0185
438,13.209999999999763,-0.016
439,13.219999999999763,-0.015
440,13.229999999999762,-0.015
441,13.239999999999762,-0.014
442,13.249999999999762,-0.0125
443,13.259999999999762,-0.0135
444,13.269999999999762,-0.014
445,13.279999999999761,-0.0125
446,13.289999999999761,-0.0135
447,13.299999999999761,-0.0135
448,13.30999999999976,-0.0145
449,13.31999999999976,-0.0185
450,13.32999999999976,-0.0175
451,13.33999999999976,-0.012
452,13.34999999999976,-0.008
453,13.35999999999976,-0.0025
454,13.36999999999976,-0.0035
455,13.37999999999976,-0.013
456,13.389999999999759,-0.0155
457,13.399999999999759,-0.014
458,13.409999999999759,-0.006
459,13.419999999999758,0.0025
460,13.429999999999758,0.0005
461,13.439999999999758,-0.002
462,13.449999999999758,-0.0035
463,13.459999999999757,-0.0055
464,13.469999999999757,-0.0115
465,13.479999999999757,-0.01
466,13.489999999999757,-0.009
467,13.499999999999757,-0.0125
468,13.509999999999756,-0.0115
469,13.519999999999756,-0.0075
470,13.529999999999756,-0.002
471,13.539999999999756,-0.0005
472,13.549999999999756,0.0055
473,13.559999999999755,0.0075
474,13.569999999999755,0.005
475,13.579999999999755,0.0055
476,13.589999999999755,0.01
477,13.599999999999755,0.0125
478,13.609999999999754,0.0095
479,13.619999999999754,0.007
480,13.629999999999754,0.0025
481,13.639999999999754,0.0015
482,13.649999999999753,0.007
483,13.659999999999753,0.012
484,13.669999999999753,0.0085
485,13.679999999999753,0.005
486,13.689999999999753,0.003
487,13.699999999999752,-0.0005
488,13.709999999999752,0.003
489,13.719999999999752,0.0115
490,13.729999999999752,0.02
491,13.739999999999752,0.0155
492,13.749999999999751,0.011
493,13.759999999999751,0.0125
494,13.76999999999975,0.016
495,13.77999999999975,0.02
496,13.78999999999975,0.0175
497,13.79999999999975,0.0165
498,13.80999999999975,0.0165
499,13.81999999999975,0.0135
500,13.82999999999975,0.008
501,13.83999999999975,0.009
502,13.84999999999975,0.015
503,13.859999999999749,0.013
504,13.869999999999749,0.01
505,13.879999999999749,0.0095
506,13.889999999999748,0.0115
507,13.899999999999748,0.0145
508,13.909999999999748,0.0095
509,13.919999999999748,0.0095
510,13.929999999999747,0.0155
511,13.939999999999747,0.0165
512,13.949999999999747,0.0175
513,13.959999999999747,0.016
514,13.969999999999747,0.015
515,13.979999999999746,0.0155
516,13.989999999999746,0.0195
517,13.999999999999746,0.025
518,14.009999999999746,0.024
519,14.019999999999746,0.016
520,14.029999999999745,0.0125
521,14.039999999999745,0.012
522,14.049999999999745,0.0165
523,14.059999999999745,0.018
524,14.069999999999744,0.013
525,14.079999999999744,0.014
526,14.089999999999744,0.013
527,14.099999999999744,0.0105
528,14.109999999999744,0.01
529,14.119999999999743,0.0105
530,14.129999999999743,0.015
531,14.139999999999743,0.0215
532,14.149999999999743,0.0185
533,14.159999999999743,0.0145
534,14.169999999999742,0.0215
535,14.179999999999742,0.029
536,14.189999999999742,0.03
537,14.199999999999742,0.0295
538,14.209999999999742,0.034
539,14.219999999999741,0.0345
540,14.229999999999741,0.03
541,14.23999999999974,0.032
542,14.24999999999974,0.03
543,14.25999999999974,0.027
544,14.26999999999974,0.0315
545,14.27999999999974,0.032
546,14.28999999999974,0.029
547,14.29999999999974,0.026
548,14.30999999999974,0.028
549,14.31999999999974,0.031
550,14.329999999999739,0.0325
551,14.339999999999739,0.0335
552,14.349999999999739,0.035
553,14.359999999999738,0.038
554,14.369999999999738,0.036
555,14.379999999999738,0.0355
556,14.389999999999738,0.0405
557,14.399999999999737,0.0415
558,14.409999999999737,0.041
559,14.419999999999737,0.04
560,14.429999999999737,0.0375
561,14.439999999999737,0.0335
562,14.449999999999736,0.037
563,14.459999999999736,0.044
564,14.469999999999736,0.0415
565,14.479999999999736,0.046
566,14.489999999999736,0.0505
567,14.499999999999735,0.0525
568,14.509999999999735,0.0555
569,14.519999999999735,0.053
570,14.529999999999735,0.0515
571,14.539999999999734,0.0475
572,14.549999999999734,0.048
573,14.559999999999734,0.055
574,14.569999999999734,0.059
575,14.579999999999734,0.059
576,14.589999999999733,0.0605
577,14.599999999999733,0.0605
578,14.609999999999733,0.061
579,14.619999999999733,0.065
580,14.629999999999733,0.064
581,14.639999999999732,0.0575
582,14.649999999999732,0.0565
583,14.659999999999732,0.058
584,14.669999999999732,0.06
585,14.679999999999731,0.065
586,14.689999999999731,0.0665
587,14.699999999999731,0.065
588,14.70999999999973,0.063
589,14.71999999999973,0.0685
590,14.72999999999973,0.082
591,14.73999999999973,0.0835
592,14.74999999999973,0.077
593,14.75999999999973,0.074
594,14.76999999999973,0.0715
595,14.77999999999973,0.07
596,14.78999999999973,0.0705
597,14.799999999999729,0.0745
598,14.809999999999729,0.077
599,14.819999999999729,0.0745
600,14.829999999999728,0.076
601,14.839999999999728,0.076
602,14.849999999999728,0.0745
603,14.859999999999728,0.072
604,14.869999999999727,0.0715
605,14.879999999999727,0.0765
606,14.889999999999727,0.0735
607,14.899999999999727,0.0725
608,14.909999999999727,0.069
609,14.919999999999726,0.067
610,14.929999999999726,0.0735
611,14.939999999999726,0.079
612,14.949999999999726,0.079
613,14.959999999999726,0.077
614,14.969999999999725,0.0795
615,14.979999999999725,0.079
616,14.989999999999725,0.08
617,14.999999999999725,0.0765
618,15.009999999999724,0.0745
619,15.019999999999724,0.077
620,15.029999999999724,0.0705
621,15.039999999999724,0.0715
622,15.049999999999724,0.079
623,15.059999999999723,0.084
624,15.069999999999723,0.0825
625,15.079999999999723,0.087
626,15.089999999999723,0.0885
627,15.099999999999723,0.08
628,15.109999999999722,0.08
629,15.119999999999722,0.081
630,15.129999999999722,0.081
631,15.139999999999722,0.082
632,15.149999999999721,0.0825
633,15.159999999999721,0.081
634,15.169999999999721,0.078
635,15.17999999999972,0.076
636,15.18999999999972,0.0775
637,15.19999999999972,0.0775
638,15.20999999999972,0.075
639,15.21999999999972,0.0755
640,15.22999999999972,0.0725
641,15.23999999999972,0.068
642,15.24999999999972,0.068
643,15.25999999999972,0.072
644,15.269999999999719,0.071
645,15.279999999999719,0.0695
646,15.289999999999718,0.066
647,15.299999999999718,0.062
648,15.309999999999718,0.0665
649,15.319999999999718,0.0675
650,15.329999999999718,0.06
651,15.339999999999717,0.0545
652,15.349999999999717,0.055
653,15.359999999999717,0.0555
654,15.369999999999717,0.0575
655,15.379999999999717,0.0585
656,15.389999999999716,0.0555
657,15.399999999999716,0.054
658,15.409999999999716,0.053
659,15.419999999999716,0.059
660,15.429999999999715,0.062
661,15.439999999999715,0.058
662,15.449999999999715,0.063
663,15.459999999999715,0.0715
664,15.469999999999715,0.0695
665,15.479999999999714,0.069
666,15.489999999999714,0.064
667,15.499999999999714,0.059
668,15.509999999999714,0.0615
669,15.519999999999714,0.06
670,15.529999999999713,0.0645
671,15.539999999999713,0.0635
672,15.549999999999713,0.053
673,15.559999999999713,0.05
674,15.569999999999713,0.05
675,15.579999999999712,0.053
676,15.589999999999712,0.057
677,15.599999999999712,0.0605
678,15.609999999999712,0.0635
679,15.619999999999711,0.0655
680,15.629999999999711,0.0635
681,15.639999999999711,0.05
682,15.64999999999971,0.0455
683,15.65999999999971,0.053
684,15.66999999999971,0.0595
685,15.67999999999971,0.062
686,15.68999999999971,0.0605
687,15.69999999999971,0.062
688,15.70999999999971,0.057
689,15.71999999999971,0.0545
690,15.729999999999709,0.052
691,15.739999999999709,0.0475
692,15.749999999999709,0.047
693,15.759999999999708,0.045
694,15.769999999999708,0.059
695,15.779999999999708,0.0695
696,15.789999999999708,0.0645
697,15.799999999999708,0.061
698,15.809999999999707,0.06
699,15.819999999999707,0.053
700,15.829999999999707,0.05
701,15.839999999999707,0.052
702,15.849999999999707,0.052
703,15.859999999999706,0.059
704,15.869999999999706,0.0635
705,15.879999999999706,0.0635
706,15.889999999999706,0.055
707,15.899999999999705,0.05
708,15.909999999999705,0.056
709,15.919999999999705,0.0535
710,15.929999999999705,0.0555
711,15.939999999999705,0.0565
712,15.949999999999704,0.0555
713,15.959999999999704,0.057
714,15.969999999999704,0.055
715,15.979999999999704,0.0525
716,15.989999999999704,0.054
717,15.999999999999703,0.0535
718,16.009999999999703,0.049
719,16.019999999999705,0.0485
720,16.029999999999706,0.05
721,16.039999999999708,0.05
722,16.04999999999971,0.0565
723,16.05999999999971,0.059
724,16.069999999999713,0.056
725,16.079999999999714,0.057
726,16.089999999999716,0.055
727,16.099999999999717,0.0485
728,16.10999999999972,0.0455
729,16.11999999999972,0.05
730,16.129999999999722,0.0475
731,16.139999999999723,0.047
732,16.149999999999725,0.0535
733,16.159999999999727,0.055
734,16.169999999999728,0.054
735,16.17999999999973,0.0535
736,16.18999999999973,0.0575
737,16.199999999999733,0.057
738,16.209999999999734,0.0535
739,16.219999999999736,0.051
740,16.229999999999738,0.051
741,16.23999999999974,0.0495
742,16.24999999999974,0.0455
743,16.259999999999742,0.0485
744,16.269999999999744,0.0505
745,16.279999999999745,0.0465
746,16.289999999999747,0.0455
747,16.29999999999975,0.048
748,16.30999999999975,0.047
749,16.31999999999975,0.045
750,16.329999999999753,0.0435
751,16.339999999999755,0.046
752,16.349999999999756,0.046
753,16.359999999999758,0.048
754,16.36999999999976,0.054
755,16.37999999999976,0.056
756,16.389999999999763,0.0555
757,16.399999999999764,0.0525
758,16.409999999999766,0.0495
759,16.419999999999767,0.0465
760,16.42999999999977,0.049
761,16.43999999999977,0.0485
762,16.449999999999772,0.0425
763,16.459999999999773,0.0425
764,16.469999999999775,0.045
765,16.479999999999777,0.049
766,16.489999999999778,0.0455
767,16.49999999999978,0.0435
768,16.50999999999978,0.0445
769,16.519999999999783,0.043
770,16.529999999999784,0.044
771,16.539999999999786,0.0395
772,16.549999999999788,0.0345
773,16.55999999999979,0.03
774,16.56999999999979,0.032
775,16.579999999999792,0.0325
776,16.589999999999794,0.035
777,16.599999999999795,0.044
778,16.609999999999797,0.0455
779,16.6199999999998,0.046
780,16.6299999999998,0.048
781,16.6399999999998,0.048
782,16.649999999999803,0.0455
783,16.659999999999805,0.0425
784,16.669999999999806,0.044
785,16.679999999999808,0.0415
786,16.68999999999981,0.035
787,16.69999999999981,0.0375
788,16.709999999999813,0.041
789,16.719999999999814,0.0395
790,16.729999999999816,0.0365
791,16.739999999999817,0.033
792,16.74999999999982,0.0345
793,16.75999999999982,0.0385
794,16.769999999999822,0.0385
795,16.779999999999824,0.036
796,16.789999999999825,0.035
797,16.799999999999827,0.0325
798,16.809999999999828,0.031
799,16.81999999999983,0.032
800,16.82999999999983,0.035
801,16.839999999999833,0.0395
802,16.849999999999834,0.0435
803,16.859999999999836,0.0435
804,16.869999999999838,0.0375
805,16.87999999999984,0.037
806,16.88999999999984,0.034
807,16.899999999999842,0.029
808,16.909999999999844,0.032
809,16.919999999999845,0.031
810,16.929999999999847,0.0265
811,16.93999999999985,0.0225
812,16.94999999999985,0.022
813,16.95999999999985,0.0255
814,16.969999999999853,0.026
815,16.979999999999855,0.0285
816,16.989999999999856,0.0325
817,16.999999999999858,0.03
818,17.00999999999986,0.035
819,17.01999999999986,0.0435
820,17.029999999999863,0.046
821,17.039999999999864,0.0405
822,17.049999999999866,0.0365
823,17.059999999999867,0.04
824,17.06999999999987,0.0325
825,17.07999999999987,0.024
826,17.089999999999872,0.028
827,17.099999999999874,0.032
828,17.109999999999875,0.0345
829,17.119999999999877,0.0345
830,17.129999999999878,0.0385
831,17.13999999999988,0.039
832,17.14999999999988,0.032
