timestamp,value
0.0,0.072
0.000999999999990564,0.0735
0.001999999999995339,0.079
0.0030000000000001137,0.0855
0.003999999999990678,0.0825
0.0049999999999954525,0.079
0.006000000000000227,0.077
0.006999999999990791,0.0755
0.007999999999995566,0.077
0.009000000000000341,0.0775
0.009999999999990905,0.0745
0.01099999999999568,0.075
0.012000000000000455,0.083
0.012999999999991019,0.087
0.013999999999995794,0.0835
0.015000000000000568,0.0815
0.015999999999991132,0.081
0.016999999999995907,0.08
0.018000000000000682,0.079
0.018999999999991246,0.08
0.01999999999999602,0.082
0.021000000000000796,0.0815
0.02199999999999136,0.0805
0.022999999999996135,0.078
0.02400000000000091,0.075
0.024999999999991473,0.0705
0.02599999999999625,0.0725
0.027000000000001023,0.0755
0.027999999999991587,0.074
0.028999999999996362,0.076
0.030000000000001137,0.0785
0.0309999999999917,0.0795
0.031999999999996476,0.075
0.03300000000000125,0.0765
0.033999999999991815,0.08
0.03499999999999659,0.0735
0.036000000000001364,0.0735
0.03699999999999193,0.0785
0.0379999999999967,0.0795
0.03900000000000148,0.078
0.03999999999999204,0.075
0.04099999999999682,0.0735
0.04200000000000159,0.0745
0.042999999999992156,0.077
0.04399999999999693,0.076
0.045000000000001705,0.0785
0.04599999999999227,0.0825
0.046999999999997044,0.0805
0.04800000000000182,0.081
0.04899999999999238,0.083
0.04999999999999716,0.0835
0.05100000000000193,0.087
0.0519999999999925,0.0865
0.05299999999999727,0.086
0.054000000000002046,0.093
0.05499999999999261,0.096
0.055999999999997385,0.092
0.05700000000000216,0.0915
0.057999999999992724,0.095
0.0589999999999975,0.093
0.060000000000002274,0.092
0.06099999999999284,0.095
0.06199999999999761,0.098
0.06300000000000239,0.0945
0.06399999999999295,0.096
0.06499999999999773,0.0995
0.0660000000000025,0.095
0.06699999999999307,0.091
0.06799999999999784,0.0945
0.06900000000000261,0.1045
0.06999999999999318,0.1045
0.07099999999999795,0.104
0.07200000000000273,0.106
0.07299999999999329,0.1065
0.07399999999999807,0.1055
0.07500000000000284,0.1065
0.0759999999999934,0.105
0.07699999999999818,0.105
0.07800000000000296,0.1055
0.07899999999999352,0.103
0.0799999999999983,0.1055
0.08100000000000307,0.1065
0.08199999999999363,0.1125
0.08299999999999841,0.1125
0.08399999999998897,0.1125
0.08499999999999375,0.117
0.08599999999999852,0.1155
0.08699999999998909,0.1185
0.08799999999999386,0.1185
0.08899999999999864,0.123
0.0899999999999892,0.1265
0.09099999999999397,0.1275
0.09199999999999875,0.13
0.09299999999998931,0.127
0.09399999999999409,0.1265
0.09499999999999886,0.126
0.09599999999998943,0.1275
0.0969999999999942,0.1245
0.09799999999999898,0.1225
0.09899999999998954,0.1245
0.09999999999999432,0.1245
0.10099999999999909,0.1235
0.10199999999998965,0.126
0.10299999999999443,0.131
0.1039999999999992,0.1295
0.10499999999998977,0.1315
0.10599999999999454,0.1335
0.10699999999999932,0.133
0.10799999999998988,0.136
0.10899999999999466,0.1425
0.10999999999999943,0.1415
0.11099999999999,0.1385
0.11199999999999477,0.1385
0.11299999999999955,0.1385
0.11399999999999011,0.14
0.11499999999999488,0.1365
0.11599999999999966,0.1385
0.11699999999999022,0.1415
0.117999999999995,0.14
0.11899999999999977,0.14
0.11999999999999034,0.1365
0.12099999999999511,0.133
0.12199999999999989,0.133
0.12299999999999045,0.1365
0.12399999999999523,0.137
0.125,0.1385
0.12599999999999056,0.14
0.12699999999999534,0.147
0.1280000000000001,0.153
0.12899999999999068,0.154
0.12999999999999545,0.156
0.13100000000000023,0.15
0.1319999999999908,0.1485
0.13299999999999557,0.1505
0.13400000000000034,0.1515
0.1349999999999909,0.1465
0.13599999999999568,0.1355
0.13700000000000045,0.132
0.13799999999999102,0.135
0.1389999999999958,0.1405
0.14000000000000057,0.141
0.14099999999999113,0.142
0.1419999999999959,0.1445
0.14300000000000068,0.136
0.14399999999999125,0.125
0.14499999999999602,0.125
0.1460000000000008,0.1215
0.14699999999999136,0.119
0.14799999999999613,0.125
0.1490000000000009,0.12
0.14999999999999147,0.1155
0.15099999999999625,0.1125
0.15200000000000102,0.1055
0.1529999999999916,0.1075
0.15399999999999636,0.111
0.15500000000000114,0.1035
0.1559999999999917,0.0995
0.15699999999999648,0.0955
0.15800000000000125,0.088
0.15899999999999181,0.0875
0.1599999999999966,0.0845
0.16100000000000136,0.085
0.16199999999999193,0.085
0.1629999999999967,0.0795
0.16400000000000148,0.0735
0.16499999999999204,0.0735
0.16599999999999682,0.078
0.1670000000000016,0.0795
0.16799999999999216,0.084
0.16899999999999693,0.0865
0.1700000000000017,0.081
0.17099999999999227,0.0765
0.17199999999999704,0.0785
0.17300000000000182,0.0815
0.17399999999999238,0.0805
0.17499999999999716,0.079
0.17600000000000193,0.0785
0.1769999999999925,0.078
0.17799999999999727,0.0725
0.17900000000000205,0.072
0.1799999999999926,0.076
0.18099999999999739,0.072
0.18200000000000216,0.0705
0.18299999999999272,0.074
0.1839999999999975,0.0735
0.18500000000000227,0.074
0.18599999999999284,0.079
0.1869999999999976,0.0815
0.1880000000000024,0.079
0.18899999999999295,0.0785
0.18999999999999773,0.079
0.1910000000000025,0.0745
0.19199999999999307,0.07
0.19299999999999784,0.071
0.19400000000000261,0.0725
0.19499999999999318,0.072
0.19599999999999795,0.072
0.19700000000000273,0.072
0.1979999999999933,0.072
0.19899999999999807,0.0755
0.20000000000000284,0.0755
0.2009999999999934,0.072
0.20199999999999818,0.078
0.20300000000000296,0.084
0.20399999999999352,0.084
0.2049999999999983,0.0845
0.20600000000000307,0.0815
0.20699999999999363,0.0835
0.2079999999999984,0.0905
0.20899999999998897,0.0945
0.20999999999999375,0.098
0.21099999999999852,0.1045
0.21199999999998909,0.1095
0.21299999999999386,0.1135
0.21399999999999864,0.12
0.2149999999999892,0.1175
0.21599999999999397,0.115
0.21699999999999875,0.1135
0.2179999999999893,0.117
0.2189999999999941,0.127
0.21999999999999886,0.138
0.22099999999998943,0.14
0.2219999999999942,0.1305
0.22299999999999898,0.132
0.22399999999998954,0.1325
0.22499999999999432,0.137
0.2259999999999991,0.155
0.22699999999998965,0.1605
0.22799999999999443,0.17
0.2289999999999992,0.201
0.22999999999998977,0.2395
0.23099999999999454,0.266
0.23199999999999932,0.286
0.23299999999998988,0.3195
0.23399999999999466,0.3565
0.23499999999999943,0.402
0.23599999999999,0.4425
0.23699999999999477,0.4795
0.23799999999999955,0.517
0.2389999999999901,0.5455
0.23999999999999488,0.586
0.24099999999999966,0.623
0.24199999999999022,0.6545
0.242999999999995,0.6815
0.24399999999999977,0.6955
0.24499999999999034,0.7215
0.2459999999999951,0.766
0.2469999999999999,0.788
0.24799999999999045,0.7675
0.24899999999999523,0.7045
0.25,0.6255
0.25099999999999056,0.5395
0.25199999999999534,0.465
0.2530000000000001,0.42
0.2539999999999907,0.368
0.25499999999999545,0.3245
0.2560000000000002,0.2665
0.2569999999999908,0.182
0.25799999999999557,0.1245
0.25900000000000034,0.078
0.2599999999999909,0.025
0.2609999999999957,-0.037
0.26200000000000045,-0.1015
0.262999999999991,-0.151
0.2639999999999958,-0.1735
0.26500000000000057,-0.185
0.26599999999999113,-0.218
0.2669999999999959,-0.252
0.2680000000000007,-0.2525
0.26899999999999125,-0.2385
0.269999999999996,-0.229
0.2710000000000008,-0.2
0.27199999999999136,-0.165
0.27299999999999613,-0.138
0.2740000000000009,-0.112
0.2749999999999915,-0.0875
0.27599999999999625,-0.0695
0.277000000000001,-0.057
0.2779999999999916,-0.0425
0.27899999999999636,-0.0265
0.28000000000000114,-0.016
0.2809999999999917,-0.0145
0.2819999999999965,-0.014
0.28300000000000125,-0.008
0.2839999999999918,-0.0025
0.2849999999999966,0.0075
0.28600000000000136,0.0225
0.28699999999999193,0.026
0.2879999999999967,0.027
0.2890000000000015,0.035
0.28999999999999204,0.0425
0.2909999999999968,0.045
0.2920000000000016,0.0415
0.29299999999999216,0.042
0.29399999999999693,0.0435
0.2950000000000017,0.044
0.29599999999999227,0.042
0.29699999999999704,0.0385
0.2980000000000018,0.0405
0.2989999999999924,0.043
0.29999999999999716,0.0465
0.30100000000000193,0.049
0.3019999999999925,0.0485
0.30299999999999727,0.045
0.30400000000000205,0.0425
0.3049999999999926,0.043
0.3059999999999974,0.0405
0.30700000000000216,0.0455
0.3079999999999927,0.051
0.3089999999999975,0.0525
0.3100000000000023,0.0515
0.31099999999999284,0.0495
0.3119999999999976,0.0495
0.3130000000000024,0.052
0.31399999999999295,0.0565
0.3149999999999977,0.061
0.3160000000000025,0.0625
0.31699999999999307,0.061
0.31799999999999784,0.059
0.3190000000000026,0.0495
0.3199999999999932,0.0445
0.32099999999999795,0.0465
0.32200000000000273,0.0465
0.3229999999999933,0.048
0.32399999999999807,0.0505
0.32500000000000284,0.049
0.3259999999999934,0.0515
0.3269999999999982,0.052
0.32800000000000296,0.0535
0.3289999999999935,0.054
0.3299999999999983,0.0485
0.33100000000000307,0.0485
0.33199999999999363,0.0495
0.3329999999999984,0.0535
0.333999999999989,0.052
0.33499999999999375,0.0485
0.3359999999999985,0.0485
0.3369999999999891,0.0525
0.33799999999999386,0.054
0.33899999999999864,0.0505
0.3399999999999892,0.0535
0.340999999999994,0.05
0.34199999999999875,0.051
0.3429999999999893,0.0535
0.3439999999999941,0.054
0.34499999999999886,0.0645
0.3459999999999894,0.0675
0.3469999999999942,0.067
0.347999999999999,0.0615
0.34899999999998954,0.062
0.3499999999999943,0.065
0.3509999999999991,0.0625
0.35199999999998965,0.064
0.35299999999999443,0.066
0.3539999999999992,0.0645
0.35499999999998977,0.063
0.35599999999999454,0.064
0.3569999999999993,0.0645
0.3579999999999899,0.0685
0.35899999999999466,0.068
0.35999999999999943,0.0685
0.36099999999999,0.068
0.36199999999999477,0.066
0.36299999999999955,0.069
0.3639999999999901,0.0615
0.3649999999999949,0.0595
0.36599999999999966,0.0635
0.3669999999999902,0.061
0.367999999999995,0.062
0.3689999999999998,0.0685
0.36999999999999034,0.071
0.3709999999999951,0.068
0.3719999999999999,0.065
0.37299999999999045,0.0675
0.3739999999999952,0.0695
0.375,0.067
0.37599999999999056,0.066
0.37699999999999534,0.0685
0.3780000000000001,0.074
0.3789999999999907,0.076
0.37999999999999545,0.074
0.3810000000000002,0.0725
0.3819999999999908,0.0695
0.38299999999999557,0.0665
0.38400000000000034,0.0675
0.3849999999999909,0.0695
0.3859999999999957,0.0695
0.38700000000000045,0.0725
0.387999999999991,0.078
0.3889999999999958,0.078
0.39000000000000057,0.074
0.39099999999999113,0.0755
0.3919999999999959,0.0745
0.3930000000000007,0.0725
0.39399999999999125,0.0785
0.394999999999996,0.079
0.3960000000000008,0.0785
0.39699999999999136,0.081
0.39799999999999613,0.081
0.3990000000000009,0.0855
0.3999999999999915,0.0845
0.40099999999999625,0.0825
0.402000000000001,0.0845
0.4029999999999916,0.077
0.40399999999999636,0.076
0.40500000000000114,0.0815
0.4059999999999917,0.082
0.4069999999999965,0.0845
0.40800000000000125,0.088
0.4089999999999918,0.0885
0.4099999999999966,0.083
0.41100000000000136,0.083
0.41199999999999193,0.087
0.4129999999999967,0.084
0.4140000000000015,0.0815
0.41499999999999204,0.084
0.4159999999999968,0.085
0.4170000000000016,0.0845
0.41799999999999216,0.0845
0.41899999999999693,0.0835
0.4200000000000017,0.0845
0.42099999999999227,0.0895
0.42199999999999704,0.0955
0.4230000000000018,0.099
0.4239999999999924,0.097
0.42499999999999716,0.093
0.42600000000000193,0.094
0.4269999999999925,0.0935
0.42799999999999727,0.0955
0.42900000000000205,0.099
0.4299999999999926,0.098
0.4309999999999974,0.097
0.43200000000000216,0.096
0.4329999999999927,0.0955
0.4339999999999975,0.095
0.4350000000000023,0.096
0.43599999999999284,0.1025
0.4369999999999976,0.1045
0.4380000000000024,0.1025
0.43899999999999295,0.104
0.4399999999999977,0.1025
0.4410000000000025,0.104
0.44199999999999307,0.1085
0.44299999999999784,0.113
0.4440000000000026,0.113
0.4449999999999932,0.1095
0.44599999999999795,0.1085
0.44700000000000273,0.11
0.4479999999999933,0.114
0.44899999999999807,0.1185
0.45000000000000284,0.1195
0.4509999999999934,0.1185
0.4519999999999982,0.112
0.45300000000000296,0.111
0.4539999999999935,0.1205
0.4549999999999983,0.121
0.45600000000000307,0.1175
0.45699999999999363,0.124
0.4579999999999984,0.1235
0.458999999999989,0.121
0.45999999999999375,0.122
0.4609999999999985,0.1245
0.4619999999999891,0.128
0.46299999999999386,0.1235
0.46399999999999864,0.12
0.4649999999999892,0.1225
0.465999999999994,0.127
0.46699999999999875,0.133
0.4679999999999893,0.1345
0.4689999999999941,0.1375
0.46999999999999886,0.1405
0.4709999999999894,0.141
0.4719999999999942,0.142
0.472999999999999,0.1435
0.47399999999998954,0.1475
0.4749999999999943,0.1435
0.4759999999999991,0.1385
0.47699999999998965,0.1395
0.47799999999999443,0.1365
0.4789999999999992,0.1345
0.47999999999998977,0.138
0.48099999999999454,0.14
0.4819999999999993,0.138
0.4829999999999899,0.1365
0.48399999999999466,0.137
0.48499999999999943,0.1375
0.48599999999999,0.1355
0.48699999999999477,0.137
0.48799999999999955,0.1445
0.4889999999999901,0.148
0.4899999999999949,0.1435
0.49099999999999966,0.139
0.4919999999999902,0.1385
0.492999999999995,0.139
0.4939999999999998,0.1395
0.49499999999999034,0.1395
0.4959999999999951,0.136
0.4969999999999999,0.1345
0.49799999999999045,0.135
0.4989999999999952,0.1335
0.5,0.1345
0.5009999999999906,0.139
0.5019999999999953,0.138
0.5030000000000001,0.129
0.5039999999999907,0.13
0.5049999999999955,0.136
0.5060000000000002,0.1375
0.5069999999999908,0.1345
0.5079999999999956,0.132
0.5090000000000003,0.131
0.5099999999999909,0.13
0.5109999999999957,0.131
0.5120000000000005,0.126
0.512999999999991,0.127
0.5139999999999958,0.1265
0.5150000000000006,0.119
0.5159999999999911,0.1175
0.5169999999999959,0.1195
0.5180000000000007,0.1215
0.5189999999999912,0.1195
0.519999999999996,0.12
0.5210000000000008,0.117
0.5219999999999914,0.117
0.5229999999999961,0.1205
0.5240000000000009,0.1165
0.5249999999999915,0.1175
0.5259999999999962,0.125
0.527000000000001,0.1295
0.5279999999999916,0.1305
0.5289999999999964,0.131
0.5300000000000011,0.133
0.5309999999999917,0.132
0.5319999999999965,0.125
0.5330000000000013,0.1205
0.5339999999999918,0.122
0.5349999999999966,0.1205
0.5360000000000014,0.117
0.5369999999999919,0.1165
0.5379999999999967,0.1165
0.5390000000000015,0.116
0.539999999999992,0.1125
0.5409999999999968,0.109
0.5420000000000016,0.1085
0.5429999999999922,0.1085
0.5439999999999969,0.107
0.5450000000000017,0.1075
0.5459999999999923,0.109
0.546999999999997,0.111
0.5480000000000018,0.1165
0.5489999999999924,0.1175
0.5499999999999972,0.116
0.5510000000000019,0.115
0.5519999999999925,0.11
0.5529999999999973,0.109
0.554000000000002,0.114
0.5549999999999926,0.1135
0.5559999999999974,0.1155
0.5570000000000022,0.121
0.5579999999999927,0.119
0.5589999999999975,0.1195
0.5600000000000023,0.12
0.5609999999999928,0.116
0.5619999999999976,0.115
0.5630000000000024,0.118
0.563999999999993,0.117
0.5649999999999977,0.113
0.5660000000000025,0.111
0.5669999999999931,0.1075
0.5679999999999978,0.1085
0.5690000000000026,0.1105
0.5699999999999932,0.1125
0.570999999999998,0.1125
0.5720000000000027,0.1115
0.5729999999999933,0.1105
0.5739999999999981,0.106
0.5750000000000028,0.1055
0.5759999999999934,0.103
0.5769999999999982,0.1035
0.578000000000003,0.106
0.5789999999999935,0.1075
0.5799999999999983,0.108
0.5810000000000031,0.105
0.5819999999999936,0.1045
0.5829999999999984,0.103
0.583999999999989,0.1025
0.5849999999999937,0.103
0.5859999999999985,0.0985
0.5869999999999891,0.096
0.5879999999999939,0.099
0.5889999999999986,0.1055
0.5899999999999892,0.106
0.590999999999994,0.103
0.5919999999999987,0.105
0.5929999999999893,0.101
0.5939999999999941,0.099
0.5949999999999989,0.104
0.5959999999999894,0.1025
0.5969999999999942,0.099
0.597999999999999,0.1025
0.5989999999999895,0.107
0.5999999999999943,0.105
0.6009999999999991,0.102
0.6019999999999897,0.101
0.6029999999999944,0.0965
0.6039999999999992,0.097
0.6049999999999898,0.104
0.6059999999999945,0.1045
0.6069999999999993,0.1055
0.6079999999999899,0.106
0.6089999999999947,0.105
0.6099999999999994,0.107
0.61099999999999,0.1045
0.6119999999999948,0.101
0.6129999999999995,0.0985
0.6139999999999901,0.098
0.6149999999999949,0.096
0.6159999999999997,0.097
0.6169999999999902,0.099
0.617999999999995,0.094
0.6189999999999998,0.095
0.6199999999999903,0.0955
0.6209999999999951,0.09
0.6219999999999999,0.087
0.6229999999999905,0.0895
0.6239999999999952,0.092
0.625,0.091
0.6259999999999906,0.092
0.6269999999999953,0.0975
0.6280000000000001,0.0975
0.6289999999999907,0.096
0.6299999999999955,0.1015
0.6310000000000002,0.1005
0.6319999999999908,0.0935
0.6329999999999956,0.092
0.6340000000000003,0.092
0.6349999999999909,0.0895
0.6359999999999957,0.09
0.6370000000000005,0.0905
0.637999999999991,0.0875
0.6389999999999958,0.0875
0.6400000000000006,0.0885
0.6409999999999911,0.0905
0.6419999999999959,0.0935
0.6430000000000007,0.0895
0.6439999999999912,0.087
0.644999999999996,0.0865
0.6460000000000008,0.0855
0.6469999999999914,0.087
0.6479999999999961,0.092
0.6490000000000009,0.0945
0.6499999999999915,0.089
0.6509999999999962,0.09
0.652000000000001,0.091
0.6529999999999916,0.083
0.6539999999999964,0.0815
0.6550000000000011,0.0815
0.6559999999999917,0.084
0.6569999999999965,0.084
0.6580000000000013,0.0795
0.6589999999999918,0.0785
0.6599999999999966,0.0765
0.6610000000000014,0.0795
0.6619999999999919,0.0855
0.6629999999999967,0.082
0.6640000000000015,0.078
0.664999999999992,0.0775
0.6659999999999968,0.076
0.6670000000000016,0.079
0.6679999999999922,0.088
0.6689999999999969,0.089
0.6700000000000017,0.0825
0.6709999999999923,0.0795
0.671999999999997,0.0785
0.6730000000000018,0.0795
0.6739999999999924,0.0855
0.6749999999999972,0.0875
0.6760000000000019,0.0815
0.6769999999999925,0.0815
0.6779999999999973,0.0815
0.679000000000002,0.079
0.6799999999999926,0.0765
0.6809999999999974,0.0715
0.6820000000000022,0.0675
0.6829999999999927,0.0665
0.6839999999999975,0.067
0.6850000000000023,0.0685
0.6859999999999928,0.072
0.6869999999999976,0.0765
0.6880000000000024,0.0805
0.688999999999993,0.084
0.6899999999999977,0.0825
0.6910000000000025,0.078
0.6919999999999931,0.0745
0.6929999999999978,0.076
0.6940000000000026,0.079
0.6949999999999932,0.08
0.695999999999998,0.0795
0.6970000000000027,0.0775
0.6979999999999933,0.0745
0.6989999999999981,0.073
0.7000000000000028,0.072
0.7009999999999934,0.0695
0.7019999999999982,0.068
0.703000000000003,0.0685
0.7039999999999935,0.0685
0.7049999999999983,0.069
0.7060000000000031,0.072
0.7069999999999936,0.075
0.7079999999999984,0.079
0.708999999999989,0.079
0.7099999999999937,0.0765
0.7109999999999985,0.0725
0.7119999999999891,0.065
0.7129999999999939,0.064
0.7139999999999986,0.069
0.7149999999999892,0.0695
0.715999999999994,0.07
0.7169999999999987,0.073
0.7179999999999893,0.075
0.7189999999999941,0.074
0.7199999999999989,0.0725
0.7209999999999894,0.076
0.7219999999999942,0.0755
0.722999999999999,0.074
0.7239999999999895,0.0755
0.7249999999999943,0.074
0.7259999999999991,0.0715
0.7269999999999897,0.072
0.7279999999999944,0.075
0.7289999999999992,0.0765
0.7299999999999898,0.077
0.7309999999999945,0.0785
0.7319999999999993,0.0775
0.7329999999999899,0.072
0.7339999999999947,0.0725
0.7349999999999994,0.07
0.73599999999999,0.0665
0.7369999999999948,0.069
0.7379999999999995,0.0675
0.7389999999999901,0.0645
0.7399999999999949,0.068
0.7409999999999997,0.0745
0.7419999999999902,0.075
0.742999999999995,0.0725
0.7439999999999998,0.0735
0.7449999999999903,0.0765
0.7459999999999951,0.0755
0.7469999999999999,0.075
0.7479999999999905,0.0745
0.7489999999999952,0.0725
0.75,0.076
0.7509999999999906,0.0805
0.7519999999999953,0.088
0.7530000000000001,0.087
0.7539999999999907,0.0795
0.7549999999999955,0.0765
0.7560000000000002,0.08
0.7569999999999908,0.0805
0.7579999999999956,0.0795
0.7590000000000003,0.08
0.7599999999999909,0.0755
0.7609999999999957,0.075
0.7620000000000005,0.076
0.762999999999991,0.075
0.7639999999999958,0.073
0.7650000000000006,0.077
0.7659999999999911,0.087
0.7669999999999959,0.0845
0.7680000000000007,0.083
0.7689999999999912,0.0875
0.769999999999996,0.087
0.7710000000000008,0.084
0.7719999999999914,0.0815
0.7729999999999961,0.082
0.7740000000000009,0.082
0.7749999999999915,0.082
0.7759999999999962,0.0835
0.777000000000001,0.083
0.7779999999999916,0.0805
0.7789999999999964,0.0825
0.7800000000000011,0.0805
0.7809999999999917,0.075
0.7819999999999965,0.073
0.7830000000000013,0.0715
0.7839999999999918,0.073
0.7849999999999966,0.076
0.7860000000000014,0.08
0.7869999999999919,0.0825
0.7879999999999967,0.0805
0.7890000000000015,0.0765
0.789999999999992,0.079
0.7909999999999968,0.0805
0.7920000000000016,0.0785
0.7929999999999922,0.0805
0.7939999999999969,0.082
0.7950000000000017,0.079
0.7959999999999923,0.079
0.796999999999997,0.0855
0.7980000000000018,0.081
0.7989999999999924,0.076
