timestamp,value
0.0,-0.157
0.0010000000000047748,-0.159
0.001999999999995339,-0.155
0.0030000000000001137,-0.15
0.0040000000000048885,-0.1515
0.0049999999999954525,-0.151
0.006000000000000227,-0.149
0.007000000000005002,-0.153
0.007999999999995566,-0.1505
0.009000000000000341,-0.1505
0.009999999999990905,-0.1515
0.01099999999999568,-0.1495
0.012000000000000455,-0.151
0.012999999999991019,-0.1485
0.013999999999995794,-0.1495
0.015000000000000568,-0.153
0.015999999999991132,-0.1495
0.016999999999995907,-0.147
0.018000000000000682,-0.153
0.018999999999991246,-0.157
0.01999999999999602,-0.1515
0.021000000000000796,-0.151
0.02199999999999136,-0.1555
0.022999999999996135,-0.1535
0.02400000000000091,-0.153
0.024999999999991473,-0.156
0.02599999999999625,-0.1525
0.027000000000001023,-0.1485
0.027999999999991587,-0.1435
0.028999999999996362,-0.1455
0.030000000000001137,-0.1465
0.0309999999999917,-0.1445
0.031999999999996476,-0.153
0.03300000000000125,-0.159
0.033999999999991815,-0.159
0.03499999999999659,-0.1525
0.036000000000001364,-0.152
0.03699999999999193,-0.152
0.0379999999999967,-0.155
0.03900000000000148,-0.164
0.03999999999999204,-0.158
0.04099999999999682,-0.156
0.04200000000000159,-0.156
0.042999999999992156,-0.1535
0.04399999999999693,-0.156
0.045000000000001705,-0.1515
0.04599999999999227,-0.1485
0.046999999999997044,-0.149
0.04800000000000182,-0.147
0.04899999999999238,-0.149
0.04999999999999716,-0.15
0.05100000000000193,-0.1485
0.0519999999999925,-0.1495
0.05299999999999727,-0.1475
0.054000000000002046,-0.1455
0.05499999999999261,-0.1445
0.055999999999997385,-0.1465
0.05700000000000216,-0.1485
0.057999999999992724,-0.1495
0.0589999999999975,-0.145
0.060000000000002274,-0.1355
0.06099999999999284,-0.1355
0.06199999999999761,-0.1335
0.06300000000000239,-0.1315
0.06399999999999295,-0.138
0.06499999999999773,-0.141
0.0660000000000025,-0.144
0.06699999999999307,-0.1465
0.06799999999999784,-0.1485
0.06900000000000261,-0.1475
0.06999999999999318,-0.1455
0.07099999999999795,-0.143
0.07200000000000273,-0.135
0.07299999999999329,-0.128
0.07399999999999807,-0.1235
0.07500000000000284,-0.123
0.0759999999999934,-0.124
0.07699999999999818,-0.1275
0.07800000000000296,-0.126
0.07899999999999352,-0.1215
0.0799999999999983,-0.128
0.08100000000000307,-0.131
0.08199999999999363,-0.1235
0.08299999999999841,-0.119
0.08400000000000318,-0.123
0.08499999999999375,-0.125
0.08599999999999852,-0.124
0.0870000000000033,-0.1185
0.08799999999999386,-0.115
0.08899999999999864,-0.117
0.09000000000000341,-0.114
0.09099999999999397,-0.1125
0.09199999999999875,-0.112
0.09300000000000352,-0.111
0.09399999999999409,-0.112
0.09499999999999886,-0.114
0.09600000000000364,-0.113
0.0969999999999942,-0.1065
0.09799999999999898,-0.106
0.09900000000000375,-0.1105
0.09999999999999432,-0.1145
0.10099999999999909,-0.115
0.10200000000000387,-0.1095
0.10299999999999443,-0.109
0.1039999999999992,-0.1095
0.10500000000000398,-0.1095
0.10599999999999454,-0.112
0.10699999999999932,-0.108
0.10800000000000409,-0.106
0.10899999999999466,-0.1075
0.10999999999999943,-0.1085
0.1110000000000042,-0.11
0.11199999999999477,-0.105
0.11299999999999955,-0.1
0.11400000000000432,-0.0985
0.11499999999999488,-0.093
0.11599999999999966,-0.09
0.11700000000000443,-0.086
0.117999999999995,-0.078
0.11899999999999977,-0.0735
0.12000000000000455,-0.0755
0.12099999999999511,-0.078
0.12199999999999989,-0.0785
0.12300000000000466,-0.08
0.12399999999999523,-0.081
0.125,-0.0795
0.12600000000000477,-0.077
0.12699999999999534,-0.0755
0.1280000000000001,-0.0735
0.1290000000000049,-0.071
0.12999999999999545,-0.078
0.13100000000000023,-0.0845
0.132000000000005,-0.086
0.13299999999999557,-0.0875
0.13400000000000034,-0.081
0.1349999999999909,-0.073
0.13599999999999568,-0.073
0.13700000000000045,-0.0745
0.13799999999999102,-0.0715
0.1389999999999958,-0.076
0.14000000000000057,-0.0805
0.14099999999999113,-0.077
0.1419999999999959,-0.075
0.14300000000000068,-0.077
0.14399999999999125,-0.0775
0.14499999999999602,-0.0695
0.1460000000000008,-0.074
0.14699999999999136,-0.0815
0.14799999999999613,-0.0835
0.1490000000000009,-0.085
0.14999999999999147,-0.086
0.15099999999999625,-0.0855
0.15200000000000102,-0.0745
0.1529999999999916,-0.0695
0.15399999999999636,-0.076
0.15500000000000114,-0.0795
0.1559999999999917,-0.0815
0.15699999999999648,-0.0865
0.15800000000000125,-0.093
0.15899999999999181,-0.0935
0.1599999999999966,-0.0945
0.16100000000000136,-0.098
0.16199999999999193,-0.1
0.1629999999999967,-0.1025
0.16400000000000148,-0.104
0.16499999999999204,-0.1095
0.16599999999999682,-0.1125
0.1670000000000016,-0.1195
0.16799999999999216,-0.132
0.16899999999999693,-0.127
0.1700000000000017,-0.1195
0.17099999999999227,-0.1215
0.17199999999999704,-0.1275
0.17300000000000182,-0.1305
0.17399999999999238,-0.1305
0.17499999999999716,-0.131
0.17600000000000193,-0.128
0.1769999999999925,-0.127
0.17799999999999727,-0.1275
0.17900000000000205,-0.1275
0.1799999999999926,-0.1295
0.18099999999999739,-0.1345
0.18200000000000216,-0.134
0.18299999999999272,-0.1335
0.1839999999999975,-0.14
0.18500000000000227,-0.145
0.18599999999999284,-0.1465
0.1869999999999976,-0.145
0.1880000000000024,-0.144
0.18899999999999295,-0.1415
0.18999999999999773,-0.136
0.1910000000000025,-0.133
0.19199999999999307,-0.1385
0.19299999999999784,-0.142
0.19400000000000261,-0.1405
0.19499999999999318,-0.142
0.19599999999999795,-0.1405
0.19700000000000273,-0.1405
0.1979999999999933,-0.143
0.19899999999999807,-0.145
0.20000000000000284,-0.141
0.2009999999999934,-0.1345
0.20199999999999818,-0.132
0.20300000000000296,-0.132
0.20399999999999352,-0.1355
0.2049999999999983,-0.1345
0.20600000000000307,-0.1375
0.20699999999999363,-0.138
0.2079999999999984,-0.136
0.20900000000000318,-0.137
0.20999999999999375,-0.134
0.21099999999999852,-0.135
0.2120000000000033,-0.1345
0.21299999999999386,-0.134
0.21399999999999864,-0.136
0.2150000000000034,-0.133
0.21599999999999397,-0.1315
0.21699999999999875,-0.1315
0.21800000000000352,-0.1345
0.2189999999999941,-0.137
0.21999999999999886,-0.134
0.22100000000000364,-0.131
0.2219999999999942,-0.1245
0.22299999999999898,-0.123
0.22400000000000375,-0.1195
0.22499999999999432,-0.1095
0.2259999999999991,-0.106
0.22700000000000387,-0.1075
0.22799999999999443,-0.11
0.2289999999999992,-0.107
0.23000000000000398,-0.0955
0.23099999999999454,-0.079
0.23199999999999932,-0.076
0.2330000000000041,-0.09
0.23399999999999466,-0.084
0.23499999999999943,-0.0765
0.2360000000000042,-0.0765
0.23699999999999477,-0.0615
0.23799999999999955,-0.042
0.23900000000000432,-0.0335
0.23999999999999488,-0.0215
0.24099999999999966,0.016
0.24200000000000443,0.062
0.242999999999995,0.099
0.24399999999999977,0.133
0.24500000000000455,0.175
0.2459999999999951,0.212
0.2469999999999999,0.252
0.24800000000000466,0.2965
0.24899999999999523,0.345
0.25,0.3875
0.2510000000000048,0.428
0.25199999999999534,0.4735
0.2530000000000001,0.5115
0.2540000000000049,0.5545
0.25499999999999545,0.5785
0.2560000000000002,0.59
0.257000000000005,0.6215
0.25799999999999557,0.661
0.25900000000000034,0.6695
0.2599999999999909,0.633
0.2609999999999957,0.563
0.26200000000000045,0.481
0.262999999999991,0.3955
0.2639999999999958,0.323
0.26500000000000057,0.271
0.26599999999999113,0.2115
0.2669999999999959,0.165
0.2680000000000007,0.098
0.26899999999999125,0.018
0.269999999999996,-0.0395
0.2710000000000008,-0.107
0.27199999999999136,-0.181
0.27299999999999613,-0.2515
0.2740000000000009,-0.316
0.2749999999999915,-0.3675
0.27599999999999625,-0.3845
0.277000000000001,-0.3985
0.2779999999999916,-0.437
0.27899999999999636,-0.463
0.28000000000000114,-0.4555
0.2809999999999917,-0.4335
0.2819999999999965,-0.411
0.28300000000000125,-0.379
0.2839999999999918,-0.35
0.2849999999999966,-0.3265
0.28600000000000136,-0.308
0.28699999999999193,-0.2895
0.2879999999999967,-0.268
0.2890000000000015,-0.253
0.28999999999999204,-0.2415
0.2909999999999968,-0.229
0.2920000000000016,-0.2245
0.29299999999999216,-0.221
0.29399999999999693,-0.212
0.2950000000000017,-0.21
0.29599999999999227,-0.205
0.29699999999999704,-0.196
0.2980000000000018,-0.1875
0.2989999999999924,-0.184
0.29999999999999716,-0.1805
0.30100000000000193,-0.173
0.3019999999999925,-0.171
0.30299999999999727,-0.1765
0.30400000000000205,-0.1775
0.3049999999999926,-0.176
0.3059999999999974,-0.1745
0.30700000000000216,-0.1695
0.3079999999999927,-0.1705
0.3089999999999975,-0.1685
0.3100000000000023,-0.1715
0.31099999999999284,-0.174
0.3119999999999976,-0.1725
0.3130000000000024,-0.1705
0.31399999999999295,-0.17
0.3149999999999977,-0.1715
0.3160000000000025,-0.166
0.31699999999999307,-0.166
0.31799999999999784,-0.1655
0.3190000000000026,-0.1645
0.3199999999999932,-0.165
0.32099999999999795,-0.1635
0.32200000000000273,-0.161
0.3229999999999933,-0.1595
0.32399999999999807,-0.1585
0.32500000000000284,-0.1545
0.3259999999999934,-0.1525
0.3269999999999982,-0.149
0.32800000000000296,-0.1445
0.3289999999999935,-0.144
0.3299999999999983,-0.154
0.33100000000000307,-0.158
0.33199999999999363,-0.1535
0.3329999999999984,-0.155
0.3340000000000032,-0.1575
0.33499999999999375,-0.157
0.3359999999999985,-0.154
0.3370000000000033,-0.151
0.33799999999999386,-0.15
0.33899999999999864,-0.153
0.3400000000000034,-0.1545
0.340999999999994,-0.157
0.34199999999999875,-0.1575
0.3430000000000035,-0.156
0.3439999999999941,-0.156
0.34499999999999886,-0.1525
0.34600000000000364,-0.1485
0.3469999999999942,-0.15
0.347999999999999,-0.1555
0.34900000000000375,-0.156
0.3499999999999943,-0.1535
0.3509999999999991,-0.1515
0.35200000000000387,-0.152
0.35299999999999443,-0.1485
0.3539999999999992,-0.1465
0.355000000000004,-0.1495
0.35599999999999454,-0.1465
0.3569999999999993,-0.1445
0.3580000000000041,-0.146
0.35899999999999466,-0.1435
0.35999999999999943,-0.1405
0.3610000000000042,-0.144
0.36199999999999477,-0.1465
0.36299999999999955,-0.1475
0.3640000000000043,-0.1495
0.3649999999999949,-0.151
0.36599999999999966,-0.156
0.36700000000000443,-0.1565
0.367999999999995,-0.159
0.3689999999999998,-0.1575
0.37000000000000455,-0.151
0.3709999999999951,-0.1535
0.3719999999999999,-0.1575
0.37300000000000466,-0.1555
0.3739999999999952,-0.151
0.375,-0.147
0.3760000000000048,-0.1505
0.37699999999999534,-0.148
0.3780000000000001,-0.142
0.3790000000000049,-0.1455
0.37999999999999545,-0.1485
0.3810000000000002,-0.149
0.382000000000005,-0.146
0.38299999999999557,-0.147
0.38400000000000034,-0.143
0.3849999999999909,-0.14
0.3859999999999957,-0.147
0.38700000000000045,-0.1505
0.387999999999991,-0.1445
0.3889999999999958,-0.138
0.39000000000000057,-0.1425
0.39099999999999113,-0.148
0.3919999999999959,-0.147
0.3930000000000007,-0.144
0.39399999999999125,-0.1415
0.394999999999996,-0.133
0.3960000000000008,-0.1295
0.39699999999999136,-0.1305
0.39799999999999613,-0.134
0.3990000000000009,-0.136
0.3999999999999915,-0.1325
0.40099999999999625,-0.1345
0.402000000000001,-0.1325
0.4029999999999916,-0.1295
0.40399999999999636,-0.128
0.40500000000000114,-0.1225
0.4059999999999917,-0.121
0.4069999999999965,-0.126
0.40800000000000125,-0.1255
0.4089999999999918,-0.129
0.4099999999999966,-0.135
0.41100000000000136,-0.1275
0.41199999999999193,-0.1285
0.4129999999999967,-0.134
0.4140000000000015,-0.137
0.41499999999999204,-0.139
0.4159999999999968,-0.133
0.4170000000000016,-0.1335
0.41799999999999216,-0.1315
0.41899999999999693,-0.127
0.4200000000000017,-0.13
0.42099999999999227,-0.133
0.42199999999999704,-0.1335
0.4230000000000018,-0.1355
0.4239999999999924,-0.138
0.42499999999999716,-0.1365
0.42600000000000193,-0.132
0.4269999999999925,-0.13
0.42799999999999727,-0.1305
0.42900000000000205,-0.1305
0.4299999999999926,-0.1295
0.4309999999999974,-0.1265
0.43200000000000216,-0.1225
0.4329999999999927,-0.121
0.4339999999999975,-0.1205
0.4350000000000023,-0.1115
0.43599999999999284,-0.102
0.4369999999999976,-0.102
0.4380000000000024,-0.112
0.43899999999999295,-0.119
0.4399999999999977,-0.115
0.4410000000000025,-0.1105
0.44199999999999307,-0.103
0.44299999999999784,-0.1015
0.4440000000000026,-0.106
0.4449999999999932,-0.1125
0.44599999999999795,-0.1165
0.44700000000000273,-0.1125
0.4479999999999933,-0.11
0.44899999999999807,-0.1145
0.45000000000000284,-0.12
0.4509999999999934,-0.116
0.4519999999999982,-0.1105
0.45300000000000296,-0.1085
0.4539999999999935,-0.1065
0.4549999999999983,-0.108
0.45600000000000307,-0.107
0.45699999999999363,-0.104
0.4579999999999984,-0.1035
0.4590000000000032,-0.1005
0.45999999999999375,-0.098
0.4609999999999985,-0.098
0.4620000000000033,-0.101
0.46299999999999386,-0.1035
0.46399999999999864,-0.101
0.4650000000000034,-0.0995
0.465999999999994,-0.1015
0.46699999999999875,-0.1045
0.4680000000000035,-0.1005
0.4689999999999941,-0.097
0.46999999999999886,-0.0995
0.47100000000000364,-0.1
0.4719999999999942,-0.097
0.472999999999999,-0.0955
0.47400000000000375,-0.0965
0.4749999999999943,-0.0935
0.4759999999999991,-0.092
0.47700000000000387,-0.091
0.47799999999999443,-0.0885
0.4789999999999992,-0.0885
0.480000000000004,-0.0905
0.48099999999999454,-0.0935
0.4819999999999993,-0.0895
0.4830000000000041,-0.093
0.48399999999999466,-0.102
0.48499999999999943,-0.0995
0.4860000000000042,-0.098
0.48699999999999477,-0.0965
0.48799999999999955,-0.0885
0.4890000000000043,-0.082
0.4899999999999949,-0.0815
0.49099999999999966,-0.086
0.49200000000000443,-0.0865
0.492999999999995,-0.083
0.4939999999999998,-0.086
0.49500000000000455,-0.09
0.4959999999999951,-0.085
0.4969999999999999,-0.0775
0.49800000000000466,-0.079
0.4989999999999952,-0.0815
0.5,-0.085
0.5010000000000048,-0.088
0.5019999999999953,-0.081
0.5030000000000001,-0.0775
0.5040000000000049,-0.074
0.5049999999999955,-0.0735
0.5060000000000002,-0.0755
0.507000000000005,-0.0775
0.5079999999999956,-0.0845
0.5090000000000003,-0.0815
0.5099999999999909,-0.0775
0.5109999999999957,-0.081
0.5120000000000005,-0.083
0.512999999999991,-0.086
0.5139999999999958,-0.0895
0.5150000000000006,-0.088
0.5159999999999911,-0.0835
0.5169999999999959,-0.084
0.5180000000000007,-0.088
0.5189999999999912,-0.09
0.519999999999996,-0.089
0.5210000000000008,-0.09
0.5219999999999914,-0.0895
0.5229999999999961,-0.089
0.5240000000000009,-0.0925
0.5249999999999915,-0.0915
0.5259999999999962,-0.0895
0.527000000000001,-0.088
0.5279999999999916,-0.0905
0.5289999999999964,-0.0955
0.5300000000000011,-0.094
0.5309999999999917,-0.0905
0.5319999999999965,-0.091
0.5330000000000013,-0.094
0.5339999999999918,-0.0925
0.5349999999999966,-0.092
0.5360000000000014,-0.0915
0.5369999999999919,-0.0895
0.5379999999999967,-0.0915
0.5390000000000015,-0.0935
0.539999999999992,-0.0945
0.5409999999999968,-0.0925
0.5420000000000016,-0.089
0.5429999999999922,-0.088
0.5439999999999969,-0.088
0.5450000000000017,-0.0905
0.5459999999999923,-0.0925
0.546999999999997,-0.094
0.5480000000000018,-0.093
0.5489999999999924,-0.094
0.5499999999999972,-0.093
0.5510000000000019,-0.0895
0.5519999999999925,-0.0895
0.5529999999999973,-0.0925
0.554000000000002,-0.0945
0.5549999999999926,-0.0945
0.5559999999999974,-0.098
0.5570000000000022,-0.097
0.5579999999999927,-0.096
0.5589999999999975,-0.0975
0.5600000000000023,-0.0965
0.5609999999999928,-0.095
0.5619999999999976,-0.0915
0.5630000000000024,-0.097
0.563999999999993,-0.0985
0.5649999999999977,-0.0915
0.5660000000000025,-0.0905
0.5669999999999931,-0.0935
0.5679999999999978,-0.1
0.5690000000000026,-0.0995
0.5699999999999932,-0.094
0.570999999999998,-0.096
0.5720000000000027,-0.096
0.5729999999999933,-0.101
0.5739999999999981,-0.0995
0.5750000000000028,-0.0855
0.5759999999999934,-0.0875
0.5769999999999982,-0.0925
0.578000000000003,-0.091
0.5789999999999935,-0.09
0.5799999999999983,-0.086
0.5810000000000031,-0.088
0.5819999999999936,-0.091
0.5829999999999984,-0.091
0.5840000000000032,-0.0935
0.5849999999999937,-0.094
0.5859999999999985,-0.0915
0.5870000000000033,-0.0905
0.5879999999999939,-0.0965
0.5889999999999986,-0.096
0.5900000000000034,-0.0915
0.590999999999994,-0.098
0.5919999999999987,-0.096
0.5930000000000035,-0.0885
0.5939999999999941,-0.0955
0.5949999999999989,-0.096
0.5960000000000036,-0.0915
0.5969999999999942,-0.0935
0.597999999999999,-0.097
0.5990000000000038,-0.098
0.5999999999999943,-0.097
0.6009999999999991,-0.099
0.6020000000000039,-0.1005
0.6029999999999944,-0.1015
0.6039999999999992,-0.1035
0.605000000000004,-0.1085
0.6059999999999945,-0.1075
0.6069999999999993,-0.1065
0.6080000000000041,-0.111
0.6089999999999947,-0.113
0.6099999999999994,-0.1115
0.6110000000000042,-0.107
0.6119999999999948,-0.099
0.6129999999999995,-0.0975
0.6140000000000043,-0.098
0.6149999999999949,-0.0945
0.6159999999999997,-0.0975
0.6170000000000044,-0.104
0.617999999999995,-0.103
0.6189999999999998,-0.102
0.6200000000000045,-0.108
0.6209999999999951,-0.111
0.6219999999999999,-0.103
0.6230000000000047,-0.0985
0.6239999999999952,-0.103
0.625,-0.105
0.6260000000000048,-0.105
0.6269999999999953,-0.1035
0.6280000000000001,-0.101
0.6290000000000049,-0.1015
0.6299999999999955,-0.103
0.6310000000000002,-0.102
0.632000000000005,-0.1
0.6329999999999956,-0.096
0.6340000000000003,-0.092
0.6349999999999909,-0.0965
0.6359999999999957,-0.098
0.6370000000000005,-0.099
0.637999999999991,-0.1005
0.6389999999999958,-0.1035
0.6400000000000006,-0.1075
0.6409999999999911,-0.0995
0.6419999999999959,-0.094
0.6430000000000007,-0.097
0.6439999999999912,-0.098
0.644999999999996,-0.0955
0.6460000000000008,-0.099
0.6469999999999914,-0.1055
0.6479999999999961,-0.1055
0.6490000000000009,-0.107
0.6499999999999915,-0.108
0.6509999999999962,-0.1055
0.652000000000001,-0.104
0.6529999999999916,-0.107
0.6539999999999964,-0.1105
0.6550000000000011,-0.107
0.6559999999999917,-0.106
0.6569999999999965,-0.108
0.6580000000000013,-0.106
0.6589999999999918,-0.102
0.6599999999999966,-0.1025
0.6610000000000014,-0.107
0.6619999999999919,-0.1025
0.6629999999999967,-0.096
0.6640000000000015,-0.1035
0.664999999999992,-0.112
0.6659999999999968,-0.1125
0.6670000000000016,-0.116
0.6679999999999922,-0.115
0.6689999999999969,-0.1095
0.6700000000000017,-0.1095
0.6709999999999923,-0.11
0.671999999999997,-0.1155
0.6730000000000018,-0.116
0.6739999999999924,-0.112
0.6749999999999972,-0.115
0.6760000000000019,-0.113
0.6769999999999925,-0.109
0.6779999999999973,-0.1035
0.679000000000002,-0.101
0.6799999999999926,-0.1035
0.6809999999999974,-0.106
0.6820000000000022,-0.108
0.6829999999999927,-0.1085
0.6839999999999975,-0.1095
0.6850000000000023,-0.112
0.6859999999999928,-0.117
0.6869999999999976,-0.1215
0.6880000000000024,-0.124
0.688999999999993,-0.122
0.6899999999999977,-0.117
0.6910000000000025,-0.112
0.6919999999999931,-0.113
0.6929999999999978,-0.113
0.6940000000000026,-0.109
0.6949999999999932,-0.1045
0.695999999999998,-0.101
0.6970000000000027,-0.099
0.6979999999999933,-0.102
0.6989999999999981,-0.109
0.7000000000000028,-0.107
0.7009999999999934,-0.109
0.7019999999999982,-0.1155
0.703000000000003,-0.1165
0.7039999999999935,-0.112
0.7049999999999983,-0.104
0.7060000000000031,-0.1055
0.7069999999999936,-0.1095
0.7079999999999984,-0.1125
0.7090000000000032,-0.112
0.7099999999999937,-0.1115
0.7109999999999985,-0.1065
0.7120000000000033,-0.106
0.7129999999999939,-0.113
0.7139999999999986,-0.108
0.7150000000000034,-0.1065
0.715999999999994,-0.1125
0.7169999999999987,-0.107
0.7180000000000035,-0.102
0.7189999999999941,-0.107
0.7199999999999989,-0.111
0.7210000000000036,-0.1075
0.7219999999999942,-0.1045
0.722999999999999,-0.1045
0.7240000000000038,-0.1085
0.7249999999999943,-0.1115
0.7259999999999991,-0.112
0.7270000000000039,-0.112
0.7279999999999944,-0.1075
0.7289999999999992,-0.1055
0.730000000000004,-0.11
0.7309999999999945,-0.1155
0.7319999999999993,-0.113
0.7330000000000041,-0.1115
0.7339999999999947,-0.1135
0.7349999999999994,-0.111
0.7360000000000042,-0.107
0.7369999999999948,-0.102
0.7379999999999995,-0.1035
0.7390000000000043,-0.1015
0.7399999999999949,-0.103
0.7409999999999997,-0.1105
0.7420000000000044,-0.111
0.742999999999995,-0.114
0.7439999999999998,-0.1135
0.7450000000000045,-0.1085
0.7459999999999951,-0.1065
0.7469999999999999,-0.1125
0.7480000000000047,-0.109
0.7489999999999952,-0.103
0.75,-0.1055
0.7510000000000048,-0.108
0.7519999999999953,-0.1105
0.7530000000000001,-0.106
0.7540000000000049,-0.1035
0.7549999999999955,-0.101
0.7560000000000002,-0.0965
0.757000000000005,-0.0915
0.7579999999999956,-0.088
0.7590000000000003,-0.091
0.7599999999999909,-0.091
0.7609999999999957,-0.0975
0.7620000000000005,-0.0965
0.762999999999991,-0.097
0.7639999999999958,-0.106
0.7650000000000006,-0.101
0.7659999999999911,-0.0995
0.7669999999999959,-0.1005
0.7680000000000007,-0.1005
0.7689999999999912,-0.0955
0.769999999999996,-0.093
0.7710000000000008,-0.098
0.7719999999999914,-0.0965
0.7729999999999961,-0.0945
0.7740000000000009,-0.095
0.7749999999999915,-0.0955
0.7759999999999962,-0.095
0.777000000000001,-0.0965
0.7779999999999916,-0.095
0.7789999999999964,-0.091
0.7800000000000011,-0.087
0.7809999999999917,-0.086
0.7819999999999965,-0.091
0.7830000000000013,-0.0945
0.7839999999999918,-0.094
0.7849999999999966,-0.095
0.7860000000000014,-0.093
0.7869999999999919,-0.0905
0.7879999999999967,-0.096
0.7890000000000015,-0.099
0.789999999999992,-0.097
0.7909999999999968,-0.0945
0.7920000000000016,-0.0875
0.7929999999999922,-0.086
0.7939999999999969,-0.0865
0.7950000000000017,-0.084
0.7959999999999923,-0.088
0.796999999999997,-0.083
0.7980000000000018,-0.08
0.7989999999999924,-0.0875
