timestamp,value
0.0,0.0485
0.001000000000000334,0.0485
0.002000000000000668,0.0535
0.0030000000000001137,0.054
0.004000000000000448,0.0555
0.004999999999999893,0.062
0.006000000000000227,0.061
0.007000000000000561,0.0555
0.008000000000000007,0.0525
0.009000000000000341,0.058
0.010000000000000675,0.059
0.01100000000000012,0.055
0.012000000000000455,0.062
0.0129999999999999,0.0615
0.014000000000000234,0.056
0.015000000000000568,0.059
0.016000000000000014,0.06
0.017000000000000348,0.055
0.018000000000000682,0.049
0.019000000000000128,0.047
0.020000000000000462,0.0495
0.020999999999999908,0.0535
0.02200000000000024,0.0545
0.023000000000000576,0.0555
0.02400000000000002,0.061
0.025000000000000355,0.058
0.02600000000000069,0.053
0.027000000000000135,0.0575
0.02800000000000047,0.06
0.028999999999999915,0.0605
0.03000000000000025,0.0615
0.031000000000000583,0.0565
0.03200000000000003,0.0555
0.03300000000000036,0.059
0.034000000000000696,0.0625
0.03500000000000014,0.061
0.036000000000000476,0.056
0.03699999999999992,0.055
0.038000000000000256,0.05
0.03900000000000059,0.047
0.040000000000000036,0.05
0.04100000000000037,0.0505
0.0420000000000007,0.046
0.04300000000000015,0.045
0.04400000000000048,0.056
0.04499999999999993,0.064
0.04600000000000026,0.061
0.0470000000000006,0.063
0.04800000000000004,0.0655
0.04900000000000038,0.059
0.05000000000000071,0.054
0.051000000000000156,0.0565
0.05200000000000049,0.0605
0.052999999999999936,0.0605
0.05400000000000027,0.065
0.055000000000000604,0.0665
0.05600000000000005,0.064
0.057000000000000384,0.062
0.05800000000000072,0.059
0.05900000000000016,0.058
0.0600000000000005,0.0585
0.06099999999999994,0.063
0.06200000000000028,0.065
0.06300000000000061,0.066
0.06400000000000006,0.0695
0.06500000000000039,0.0705
0.06600000000000072,0.0665
0.06700000000000017,0.0685
0.0680000000000005,0.0765
0.06899999999999995,0.0745
0.07000000000000028,0.0715
0.07100000000000062,0.074
0.07200000000000006,0.074
0.0730000000000004,0.0765
0.07399999999999984,0.0765
0.07500000000000018,0.073
0.07600000000000051,0.0715
0.07699999999999996,0.0725
0.07800000000000029,0.0755
0.07900000000000063,0.0785
0.08000000000000007,0.078
0.0810000000000004,0.078
0.08199999999999985,0.082
0.08300000000000018,0.0825
0.08400000000000052,0.083
0.08499999999999996,0.0865
0.0860000000000003,0.09
0.08700000000000063,0.0945
0.08800000000000008,0.0965
0.08900000000000041,0.098
0.08999999999999986,0.095
0.09100000000000019,0.09
0.09200000000000053,0.0975
0.09299999999999997,0.1015
0.0940000000000003,0.097
0.09500000000000064,0.0975
0.09600000000000009,0.093
0.09700000000000042,0.0865
0.09799999999999986,0.094
0.0990000000000002,0.106
0.10000000000000053,0.1065
0.10099999999999998,0.102
0.10200000000000031,0.1025
0.10300000000000065,0.1085
0.10400000000000009,0.1085
0.10500000000000043,0.108
0.10599999999999987,0.108
0.1070000000000002,0.112
0.10800000000000054,0.116
0.10899999999999999,0.1125
0.11000000000000032,0.108
0.11100000000000065,0.1085
0.1120000000000001,0.1135
0.11300000000000043,0.1155
0.11399999999999988,0.113
0.11500000000000021,0.114
0.11600000000000055,0.118
0.11699999999999999,0.121
0.11800000000000033,0.1205
0.11900000000000066,0.1145
0.1200000000000001,0.1105
0.12100000000000044,0.1075
0.12199999999999989,0.107
0.12300000000000022,0.109
0.12400000000000055,0.114
0.125,0.114
0.12600000000000033,0.112
0.12700000000000067,0.1135
0.1280000000000001,0.1115
0.12900000000000045,0.11
0.1299999999999999,0.1125
0.13100000000000023,0.1155
0.13200000000000056,0.119
0.133,0.1205
0.13400000000000034,0.119
0.13500000000000068,0.118
0.13600000000000012,0.115
0.13700000000000045,0.11
0.1379999999999999,0.107
0.13900000000000023,0.103
0.14000000000000057,0.1025
0.14100000000000001,0.1035
0.14200000000000035,0.104
0.14300000000000068,0.106
0.14400000000000013,0.105
0.14500000000000046,0.105
0.1459999999999999,0.0995
0.14700000000000024,0.092
0.14800000000000058,0.091
0.14900000000000002,0.0885
0.15000000000000036,0.085
0.1510000000000007,0.0825
0.15200000000000014,0.0805
0.15300000000000047,0.079
0.15399999999999991,0.0745
0.15500000000000025,0.07
0.15600000000000058,0.064
0.15700000000000003,0.059
0.15800000000000036,0.0575
0.1590000000000007,0.057
0.16000000000000014,0.06
0.16100000000000048,0.0625
0.16199999999999992,0.0645
0.16300000000000026,0.0625
0.1640000000000006,0.0625
0.16500000000000004,0.065
0.16600000000000037,0.063
0.1670000000000007,0.065
0.16800000000000015,0.063
0.16900000000000048,0.067
0.16999999999999993,0.0675
0.17100000000000026,0.064
0.1720000000000006,0.0665
0.17300000000000004,0.062
0.17400000000000038,0.0575
0.1750000000000007,0.0565
0.17600000000000016,0.0565
0.1770000000000005,0.053
0.17799999999999994,0.051
0.17900000000000027,0.0515
0.1800000000000006,0.0455
0.18100000000000005,0.0395
0.18200000000000038,0.0435
0.18300000000000072,0.0525
0.18400000000000016,0.058
0.1850000000000005,0.0615
0.18599999999999994,0.062
0.18700000000000028,0.059
0.1880000000000006,0.0545
0.18900000000000006,0.0545
0.1900000000000004,0.056
0.19100000000000072,0.052
0.19200000000000017,0.0495
0.1930000000000005,0.054
0.19399999999999995,0.056
0.19500000000000028,0.054
0.19600000000000062,0.0525
0.19700000000000006,0.0535
0.1980000000000004,0.0535
0.19899999999999984,0.0505
0.20000000000000018,0.049
0.2010000000000005,0.0435
0.20199999999999996,0.041
0.2030000000000003,0.047
0.20400000000000063,0.0515
0.20500000000000007,0.055
0.2060000000000004,0.056
0.20699999999999985,0.056
0.20800000000000018,0.0595
0.20900000000000052,0.0585
0.20999999999999996,0.063
0.2110000000000003,0.0765
0.21200000000000063,0.0825
0.21300000000000008,0.0865
0.2140000000000004,0.091
0.21499999999999986,0.093
0.2160000000000002,0.093
0.21700000000000053,0.0935
0.21799999999999997,0.1035
0.2190000000000003,0.115
0.22000000000000064,0.1185
0.22100000000000009,0.1115
0.22200000000000042,0.1035
0.22299999999999986,0.1035
0.2240000000000002,0.1065
0.22500000000000053,0.1125
0.22599999999999998,0.1285
0.2270000000000003,0.1415
0.22800000000000065,0.1545
0.2290000000000001,0.187
0.23000000000000043,0.223
0.23099999999999987,0.2505
0.2320000000000002,0.2715
0.23300000000000054,0.3115
0.23399999999999999,0.3495
0.23500000000000032,0.3755
0.23600000000000065,0.4095
0.2370000000000001,0.4395
0.23800000000000043,0.4705
0.23899999999999988,0.5015
0.2400000000000002,0.542
0.24100000000000055,0.578
0.242,0.6095
0.24300000000000033,0.638
0.24400000000000066,0.6515
0.2450000000000001,0.6775
0.24600000000000044,0.7235
0.2469999999999999,0.7455
0.24800000000000022,0.7165
0.24900000000000055,0.647
0.25,0.563
0.25100000000000033,0.4675
0.25200000000000067,0.391
0.2530000000000001,0.345
0.25400000000000045,0.292
0.2549999999999999,0.254
0.2560000000000002,0.1955
0.25700000000000056,0.1165
0.258,0.071
0.25900000000000034,0.027
0.2600000000000007,-0.0315
0.2610000000000001,-0.0975
0.26200000000000045,-0.158
0.2629999999999999,-0.2055
0.26400000000000023,-0.229
0.26500000000000057,-0.239
0.266,-0.265
0.26700000000000035,-0.291
0.2680000000000007,-0.2865
0.26900000000000013,-0.2745
0.27000000000000046,-0.261
0.2709999999999999,-0.226
0.27200000000000024,-0.1895
0.2730000000000006,-0.1635
0.274,-0.144
0.27500000000000036,-0.1215
0.2760000000000007,-0.0985
0.27700000000000014,-0.0865
0.27800000000000047,-0.0705
0.2789999999999999,-0.0505
0.28000000000000025,-0.041
0.2810000000000006,-0.0415
0.28200000000000003,-0.0405
0.28300000000000036,-0.035
0.2840000000000007,-0.024
0.28500000000000014,-0.014
0.2860000000000005,-0.008
0.2869999999999999,0.0005
0.28800000000000026,0.007
0.2890000000000006,0.01
0.29000000000000004,0.01
0.29100000000000037,0.01
0.2920000000000007,0.011
0.29300000000000015,0.013
0.2940000000000005,0.013
0.29499999999999993,0.01
0.29600000000000026,0.0125
0.2970000000000006,0.019
0.29800000000000004,0.0195
0.2990000000000004,0.015
0.3000000000000007,0.011
0.30100000000000016,0.0065
0.3020000000000005,0.003
0.30299999999999994,0.0065
0.30400000000000027,0.02
0.3050000000000006,0.0205
0.30600000000000005,0.0195
0.3070000000000004,0.021
0.3080000000000007,0.0135
0.30900000000000016,0.0165
0.3100000000000005,0.024
0.31099999999999994,0.0225
0.3120000000000003,0.0195
0.3130000000000006,0.0225
0.31400000000000006,0.0275
0.3150000000000004,0.0275
0.3160000000000007,0.0265
0.31700000000000017,0.024
0.3180000000000005,0.025
0.31899999999999995,0.025
0.3200000000000003,0.024
0.3210000000000006,0.025
0.32200000000000006,0.025
0.3230000000000004,0.0275
0.32400000000000073,0.0285
0.3250000000000002,0.031
0.3260000000000005,0.03
0.32699999999999996,0.0305
0.3280000000000003,0.034
0.3290000000000006,0.0285
0.33000000000000007,0.0265
0.3310000000000004,0.03
0.33199999999999985,0.0295
0.3330000000000002,0.028
0.3340000000000005,0.026
0.33499999999999996,0.0285
0.3360000000000003,0.0305
0.33700000000000063,0.027
0.3380000000000001,0.023
0.3390000000000004,0.028
0.33999999999999986,0.0345
0.3410000000000002,0.033
0.3420000000000005,0.033
0.34299999999999997,0.0345
0.3440000000000003,0.031
0.34500000000000064,0.0275
0.3460000000000001,0.0275
0.3470000000000004,0.033
0.34799999999999986,0.04
0.3490000000000002,0.04
0.35000000000000053,0.041
0.351,0.042
0.3520000000000003,0.044
0.35300000000000065,0.046
0.3540000000000001,0.0425
0.3550000000000004,0.0405
0.35599999999999987,0.0385
0.3570000000000002,0.0365
0.35800000000000054,0.031
0.359,0.0315
0.3600000000000003,0.039
0.36100000000000065,0.0385
0.3620000000000001,0.0385
0.36300000000000043,0.044
0.3639999999999999,0.0465
0.3650000000000002,0.043
0.36600000000000055,0.049
0.367,0.054
0.3680000000000003,0.0455
0.36900000000000066,0.041
0.3700000000000001,0.0475
0.37100000000000044,0.049
0.3719999999999999,0.0405
0.3730000000000002,0.0405
0.37400000000000055,0.045
0.375,0.0415
0.37600000000000033,0.036
0.37700000000000067,0.035
0.3780000000000001,0.0315
0.37900000000000045,0.031
0.3799999999999999,0.0425
0.3810000000000002,0.052
0.38200000000000056,0.0435
0.383,0.0375
0.38400000000000034,0.0475
0.3850000000000007,0.051
0.3860000000000001,0.048
0.38700000000000045,0.051
0.3879999999999999,0.0545
0.38900000000000023,0.0545
0.39000000000000057,0.0565
0.391,0.06
0.39200000000000035,0.062
0.3930000000000007,0.0615
0.39400000000000013,0.06
0.39500000000000046,0.059
0.3959999999999999,0.051
0.39700000000000024,0.0475
0.3980000000000006,0.049
0.399,0.0505
0.40000000000000036,0.055
0.4010000000000007,0.0555
0.40200000000000014,0.0585
0.40300000000000047,0.0565
0.4039999999999999,0.0555
0.40500000000000025,0.058
0.4060000000000006,0.058
0.40700000000000003,0.061
0.40800000000000036,0.059
0.4090000000000007,0.0575
0.41000000000000014,0.0565
0.4110000000000005,0.0555
0.4119999999999999,0.0605
0.41300000000000026,0.0645
0.4140000000000006,0.063
0.41500000000000004,0.0605
0.41600000000000037,0.0605
0.4170000000000007,0.059
0.41800000000000015,0.0605
0.4190000000000005,0.064
0.41999999999999993,0.061
0.42100000000000026,0.0595
0.4220000000000006,0.062
0.42300000000000004,0.0655
0.4240000000000004,0.0655
0.4250000000000007,0.06
0.42600000000000016,0.0675
0.4270000000000005,0.0685
0.42799999999999994,0.0665
0.42900000000000027,0.0715
0.4300000000000006,0.0715
0.43100000000000005,0.066
0.4320000000000004,0.062
0.4330000000000007,0.064
0.43400000000000016,0.064
0.4350000000000005,0.067
0.43599999999999994,0.07
0.4370000000000003,0.0735
0.4380000000000006,0.076
0.43900000000000006,0.081
0.4400000000000004,0.087
0.4410000000000007,0.0875
0.44200000000000017,0.085
0.4430000000000005,0.0895
0.44399999999999995,0.0945
0.4450000000000003,0.0915
0.4460000000000006,0.091
0.44700000000000006,0.089
0.4480000000000004,0.0915
0.44900000000000073,0.0945
0.4500000000000002,0.09
0.4510000000000005,0.092
0.45199999999999996,0.094
0.4530000000000003,0.093
0.4540000000000006,0.097
0.45500000000000007,0.099
0.4560000000000004,0.097
0.45699999999999985,0.0975
0.4580000000000002,0.0985
0.4590000000000005,0.0955
0.45999999999999996,0.094
0.4610000000000003,0.099
0.46200000000000063,0.1025
0.4630000000000001,0.0995
0.4640000000000004,0.099
0.46499999999999986,0.1
0.4660000000000002,0.1035
0.4670000000000005,0.105
0.46799999999999997,0.103
0.4690000000000003,0.106
0.47000000000000064,0.1065
0.4710000000000001,0.1045
0.4720000000000004,0.107
0.47299999999999986,0.1125
0.4740000000000002,0.1105
0.47500000000000053,0.1035
0.476,0.1
0.4770000000000003,0.101
0.47800000000000065,0.108
0.4790000000000001,0.1085
0.4800000000000004,0.105
0.48099999999999987,0.1055
0.4820000000000002,0.104
0.48300000000000054,0.1075
0.484,0.1085
0.4850000000000003,0.1095
0.48600000000000065,0.1135
0.4870000000000001,0.1145
0.48800000000000043,0.117
0.4889999999999999,0.113
0.4900000000000002,0.1065
0.49100000000000055,0.106
0.492,0.107
0.4930000000000003,0.1075
0.49400000000000066,0.103
0.4950000000000001,0.097
0.49600000000000044,0.0935
0.4969999999999999,0.0885
0.4980000000000002,0.0895
0.49900000000000055,0.0965
0.5,0.096
0.5010000000000003,0.0975
0.5020000000000007,0.0985
0.5030000000000001,0.0965
0.5040000000000004,0.0975
0.5049999999999999,0.107
0.5060000000000002,0.1155
0.5070000000000006,0.1115
0.508,0.105
0.5090000000000003,0.097
0.5100000000000007,0.093
0.5110000000000001,0.0935
0.5120000000000005,0.0915
0.5129999999999999,0.0875
0.5140000000000002,0.0835
0.5150000000000006,0.085
0.516,0.087
0.5170000000000003,0.086
0.5180000000000007,0.085
0.5190000000000001,0.0875
0.5200000000000005,0.087
0.5209999999999999,0.087
0.5220000000000002,0.0915
0.5230000000000006,0.092
0.524,0.0915
0.5250000000000004,0.0925
0.5260000000000007,0.0905
0.5270000000000001,0.087
0.5280000000000005,0.0855
0.5289999999999999,0.085
0.5300000000000002,0.086
0.5310000000000006,0.0825
0.532,0.0825
0.5330000000000004,0.087
0.5340000000000007,0.087
0.5350000000000001,0.085
0.5360000000000005,0.081
0.5369999999999999,0.08
0.5380000000000003,0.079
0.5390000000000006,0.078
0.54,0.0815
0.5410000000000004,0.084
0.5420000000000007,0.0875
0.5430000000000001,0.09
0.5440000000000005,0.087
0.5449999999999999,0.0825
0.5460000000000003,0.079
0.5470000000000006,0.077
0.548,0.077
0.5490000000000004,0.075
0.5500000000000007,0.075
0.5510000000000002,0.076
0.5520000000000005,0.078
0.5529999999999999,0.0795
0.5540000000000003,0.0795
0.5550000000000006,0.0755
0.556,0.074
0.5570000000000004,0.0755
0.5580000000000007,0.076
0.5590000000000002,0.074
0.5600000000000005,0.069
0.5609999999999999,0.071
0.5620000000000003,0.0715
0.5630000000000006,0.0725
0.5640000000000001,0.0735
0.5650000000000004,0.075
0.5660000000000007,0.078
0.5670000000000002,0.075
0.5680000000000005,0.0755
0.569,0.073
0.5700000000000003,0.0695
0.5710000000000006,0.071
0.5720000000000001,0.0765
0.5730000000000004,0.0755
0.5740000000000007,0.0695
0.5750000000000002,0.0705
0.5760000000000005,0.068
0.577,0.0685
0.5780000000000003,0.077
0.5790000000000006,0.0825
0.5800000000000001,0.08
0.5810000000000004,0.0745
0.5819999999999999,0.072
0.5830000000000002,0.0665
0.5840000000000005,0.0615
0.585,0.064
0.5860000000000003,0.067
0.5870000000000006,0.0675
0.5880000000000001,0.072
0.5890000000000004,0.0785
0.5899999999999999,0.076
0.5910000000000002,0.0725
0.5920000000000005,0.075
0.593,0.072
0.5940000000000003,0.0715
0.5950000000000006,0.0715
0.5960000000000001,0.0725
0.5970000000000004,0.071
0.5979999999999999,0.066
0.5990000000000002,0.0685
0.6000000000000005,0.0665
0.601,0.0635
0.6020000000000003,0.063
0.6030000000000006,0.0615
0.6040000000000001,0.058
0.6050000000000004,0.061
0.6059999999999999,0.071
0.6070000000000002,0.073
0.6080000000000005,0.075
0.609,0.0765
0.6100000000000003,0.0745
0.6110000000000007,0.072
0.6120000000000001,0.07
0.6130000000000004,0.0685
0.6139999999999999,0.062
0.6150000000000002,0.06
0.6160000000000005,0.062
0.617,0.054
0.6180000000000003,0.051
0.6190000000000007,0.055
0.6200000000000001,0.0555
0.6210000000000004,0.057
0.6219999999999999,0.057
0.6230000000000002,0.0585
0.6240000000000006,0.0595
0.625,0.057
0.6260000000000003,0.0555
0.6270000000000007,0.0565
0.6280000000000001,0.0595
0.6290000000000004,0.058
0.6299999999999999,0.056
0.6310000000000002,0.058
0.6320000000000006,0.056
0.633,0.0495
0.6340000000000003,0.0495
0.6350000000000007,0.046
0.6360000000000001,0.048
0.6370000000000005,0.0535
0.6379999999999999,0.0555
0.6390000000000002,0.0565
0.6400000000000006,0.0535
0.641,0.055
0.6420000000000003,0.0495
0.6430000000000007,0.046
0.6440000000000001,0.052
0.6450000000000005,0.055
0.6459999999999999,0.056
0.6470000000000002,0.0565
0.6480000000000006,0.0565
0.649,0.052
0.6500000000000004,0.049
0.6510000000000007,0.05
0.6520000000000001,0.047
0.6530000000000005,0.047
0.6539999999999999,0.0465
0.6550000000000002,0.047
0.6560000000000006,0.047
0.657,0.043
0.6580000000000004,0.043
0.6590000000000007,0.046
0.6600000000000001,0.0485
0.6610000000000005,0.048
0.6619999999999999,0.043
0.6630000000000003,0.037
0.6640000000000006,0.0375
0.665,0.0405
0.6660000000000004,0.042
0.6670000000000007,0.039
0.6680000000000001,0.035
0.6690000000000005,0.0405
0.6699999999999999,0.042
0.6710000000000003,0.0385
0.6720000000000006,0.052
0.673,0.057
0.6740000000000004,0.048
0.6750000000000007,0.0485
0.6760000000000002,0.0425
0.6770000000000005,0.039
0.6779999999999999,0.047
0.6790000000000003,0.0445
0.6800000000000006,0.0395
0.681,0.0375
0.6820000000000004,0.041
0.6830000000000007,0.05
0.6840000000000002,0.0515
0.6850000000000005,0.054
0.6859999999999999,0.058
0.6870000000000003,0.0545
0.6880000000000006,0.0495
0.6890000000000001,0.0535
0.6900000000000004,0.056
0.6910000000000007,0.0505
0.6920000000000002,0.046
0.6930000000000005,0.043
0.694,0.039
0.6950000000000003,0.036
0.6960000000000006,0.041
0.6970000000000001,0.044
0.6980000000000004,0.0475
0.6990000000000007,0.0535
0.7000000000000002,0.0525
0.7010000000000005,0.0485
0.702,0.046
0.7030000000000003,0.046
0.7040000000000006,0.0465
0.7050000000000001,0.045
0.7060000000000004,0.0435
0.7070000000000007,0.0415
0.7080000000000002,0.037
0.7090000000000005,0.0345
0.71,0.038
0.7110000000000003,0.0465
0.7120000000000006,0.0445
0.7130000000000001,0.041
0.7140000000000004,0.0455
0.7149999999999999,0.0415
0.7160000000000002,0.0365
0.7170000000000005,0.039
0.718,0.037
0.7190000000000003,0.0335
0.7200000000000006,0.0355
0.7210000000000001,0.037
0.7220000000000004,0.038
0.7229999999999999,0.041
0.7240000000000002,0.042
0.7250000000000005,0.045
0.726,0.042
0.7270000000000003,0.042
0.7280000000000006,0.046
0.7290000000000001,0.042
0.7300000000000004,0.042
0.7309999999999999,0.0455
0.7320000000000002,0.0455
0.7330000000000005,0.046
0.734,0.0475
0.7350000000000003,0.0475
0.7360000000000007,0.0455
0.7370000000000001,0.043
0.7380000000000004,0.045
0.7389999999999999,0.051
0.7400000000000002,0.051
0.7410000000000005,0.047
0.742,0.045
0.7430000000000003,0.038
0.7440000000000007,0.034
0.7450000000000001,0.0385
0.7460000000000004,0.0415
0.7469999999999999,0.04
0.7480000000000002,0.0425
0.7490000000000006,0.045
0.75,0.041
0.7510000000000003,0.0405
0.7520000000000007,0.0455
0.7530000000000001,0.0435
0.7540000000000004,0.043
0.7549999999999999,0.043
0.7560000000000002,0.039
0.7570000000000006,0.0385
0.758,0.0375
0.7590000000000003,0.037
0.7600000000000007,0.035
0.7610000000000001,0.039
0.7620000000000005,0.043
0.7629999999999999,0.0415
0.7640000000000002,0.0425
0.7650000000000006,0.042
0.766,0.047
0.7670000000000003,0.0495
0.7680000000000007,0.042
0.7690000000000001,0.0425
0.7700000000000005,0.047
0.7709999999999999,0.046
0.7720000000000002,0.049
0.7730000000000006,0.0515
0.774,0.047
0.7750000000000004,0.0445
0.7760000000000007,0.044
0.7770000000000001,0.043
0.7780000000000005,0.0445
0.7789999999999999,0.0445
0.7800000000000002,0.045
0.7810000000000006,0.0445
0.782,0.039
0.7830000000000004,0.042
0.7840000000000007,0.043
0.7850000000000001,0.0415
0.7860000000000005,0.0455
0.7869999999999999,0.05
0.7880000000000003,0.0485
0.7890000000000006,0.045
0.79,0.051
0.7910000000000004,0.052
0.7920000000000007,0.051
0.7930000000000001,0.0505
0.7940000000000005,0.048
0.7949999999999999,0.0435
0.7960000000000003,0.0395
0.7970000000000006,0.045
0.798,0.04
0.7990000000000004,0.0385
