timestamp,value
0.0,0.0
0.0010000000000012221,0.003499999999999996
0.0019999999999988916,0.0024999999999999953
0.0030000000000001137,-0.0075
0.004000000000001336,0.0
0.004999999999999005,-0.006000000000000005
0.006000000000000227,-0.004500000000000004
0.0070000000000014495,-0.0010000000000000009
0.007999999999999119,-0.020500000000000004
0.009000000000000341,-0.016
0.00999999999999801,0.0049999999999999975
0.010999999999999233,0.0085
0.012000000000000455,0.012500000000000004
0.012999999999998124,0.017999999999999995
0.013999999999999346,0.016499999999999994
0.015000000000000568,0.014999999999999993
0.015999999999998238,0.011000000000000003
0.01699999999999946,0.011000000000000003
0.018000000000000682,0.009000000000000001
0.01899999999999835,0.006999999999999999
0.019999999999999574,0.006999999999999999
0.021000000000000796,0.008
0.021999999999998465,0.004499999999999997
0.022999999999999687,0.0
0.02400000000000091,0.003999999999999997
0.02499999999999858,0.010000000000000002
0.0259999999999998,0.01299999999999999
0.027000000000001023,0.009000000000000001
0.027999999999998693,0.011500000000000003
0.028999999999999915,0.014499999999999992
0.030000000000001137,0.018499999999999996
0.030999999999998806,0.018999999999999996
0.03200000000000003,0.016499999999999994
0.03300000000000125,0.015999999999999993
0.03399999999999892,0.0085
0.03500000000000014,0.004499999999999997
0.036000000000001364,0.003499999999999996
0.036999999999999034,0.003999999999999997
0.038000000000000256,0.0
0.03900000000000148,-0.0010000000000000009
0.03999999999999915,0.001999999999999995
0.04100000000000037,0.0024999999999999953
0.04199999999999804,0.003999999999999997
0.04299999999999926,0.009000000000000001
0.04400000000000048,0.009500000000000001
0.04499999999999815,0.006999999999999999
0.045999999999999375,0.009500000000000001
0.0470000000000006,0.005499999999999998
0.047999999999998266,0.0049999999999999975
0.04899999999999949,0.008
0.05000000000000071,0.006499999999999999
0.05099999999999838,0.009500000000000001
0.0519999999999996,0.006499999999999999
0.053000000000000824,0.0014999999999999944
0.053999999999998494,0.003999999999999997
0.054999999999999716,0.0024999999999999953
0.05600000000000094,-0.0020000000000000018
0.05699999999999861,-0.0025000000000000022
0.05799999999999983,0.0010000000000000009
0.05900000000000105,0.0029999999999999957
0.05999999999999872,0.0005000000000000004
0.06099999999999994,0.0005000000000000004
0.062000000000001165,0.001999999999999995
0.06299999999999883,0.0014999999999999944
0.06400000000000006,0.0005000000000000004
0.06500000000000128,0.0010000000000000009
0.06599999999999895,0.014499999999999992
0.06700000000000017,0.013499999999999991
0.06800000000000139,0.005499999999999998
0.06899999999999906,0.012000000000000004
0.07000000000000028,0.009000000000000001
0.07099999999999795,0.005499999999999998
0.07199999999999918,0.0085
0.0730000000000004,0.011500000000000003
0.07399999999999807,0.012000000000000004
0.07499999999999929,0.006999999999999999
0.07600000000000051,0.008
0.07699999999999818,0.010000000000000002
0.0779999999999994,0.010500000000000002
0.07900000000000063,0.013999999999999992
0.0799999999999983,0.009500000000000001
0.08099999999999952,0.009000000000000001
0.08200000000000074,0.009500000000000001
0.08299999999999841,0.010500000000000002
0.08399999999999963,0.020499999999999997
0.08500000000000085,0.025500000000000002
0.08599999999999852,0.02899999999999999
0.08699999999999974,0.03149999999999999
0.08800000000000097,0.0395
0.08899999999999864,0.04499999999999999
0.08999999999999986,0.031999999999999994
0.09100000000000108,0.0235
0.09199999999999875,0.026000000000000002
0.09299999999999997,0.02899999999999999
0.0940000000000012,0.030999999999999993
0.09499999999999886,0.02949999999999999
0.09600000000000009,0.0215
0.09700000000000131,0.0215
0.09799999999999898,0.037
0.0990000000000002,0.047499999999999994
0.10000000000000142,0.049499999999999995
0.10099999999999909,0.043500000000000004
0.10200000000000031,0.034999999999999996
0.10299999999999798,0.0415
0.1039999999999992,0.047499999999999994
0.10500000000000043,0.04699999999999999
0.1059999999999981,0.04549999999999999
0.10699999999999932,0.0405
0.10800000000000054,0.0395
0.10899999999999821,0.044000000000000004
0.10999999999999943,0.0515
0.11100000000000065,0.055
0.11199999999999832,0.0565
0.11299999999999955,0.0585
0.11400000000000077,0.0575
0.11499999999999844,0.06099999999999999
0.11599999999999966,0.066
0.11700000000000088,0.066
0.11799999999999855,0.0685
0.11899999999999977,0.07300000000000001
0.120000000000001,0.08000000000000002
0.12099999999999866,0.07700000000000001
0.12199999999999989,0.07750000000000001
0.12300000000000111,0.08050000000000002
0.12399999999999878,0.07900000000000001
0.125,0.0935
0.12600000000000122,0.093
0.1269999999999989,0.0895
0.1280000000000001,0.094
0.12900000000000134,0.09
0.129999999999999,0.094
0.13100000000000023,0.0925
0.13200000000000145,0.0905
0.13299999999999912,0.095
0.13400000000000034,0.093
0.134999999999998,0.089
0.13599999999999923,0.0925
0.13700000000000045,0.087
0.13799999999999812,0.08050000000000002
0.13899999999999935,0.0895
0.14000000000000057,0.0935
0.14099999999999824,0.087
0.14199999999999946,0.0865
0.14300000000000068,0.091
0.14399999999999835,0.091
0.14499999999999957,0.0875
0.1460000000000008,0.08349999999999999
0.14699999999999847,0.07800000000000001
0.1479999999999997,0.07300000000000001
0.1490000000000009,0.07350000000000001
0.14999999999999858,0.07650000000000001
0.1509999999999998,0.07400000000000001
0.15200000000000102,0.07100000000000001
0.1529999999999987,0.065
0.15399999999999991,0.058
0.15500000000000114,0.056
0.1559999999999988,0.0565
0.15700000000000003,0.054
0.15800000000000125,0.050499999999999996
0.15899999999999892,0.0555
0.16000000000000014,0.043500000000000004
0.16100000000000136,0.030499999999999992
0.16199999999999903,0.0355
0.16300000000000026,0.034999999999999996
0.16400000000000148,0.036
0.16499999999999915,0.029999999999999992
0.16600000000000037,0.033999999999999996
0.16699999999999804,0.0355
0.16799999999999926,0.0235
0.16900000000000048,0.03149999999999999
0.16999999999999815,0.031999999999999994
0.17099999999999937,0.027000000000000003
0.1720000000000006,0.022
0.17299999999999827,0.018999999999999996
0.1739999999999995,0.017999999999999995
0.1750000000000007,0.011500000000000003
0.17599999999999838,0.013499999999999991
0.1769999999999996,0.003999999999999997
0.17800000000000082,-0.0015000000000000013
0.1789999999999985,0.0010000000000000009
0.17999999999999972,0.0024999999999999953
0.18100000000000094,-0.0015000000000000013
0.1819999999999986,-0.006999999999999999
0.18299999999999983,-0.0020000000000000018
0.18400000000000105,-0.011000000000000003
0.18499999999999872,-0.017
0.18599999999999994,-0.010500000000000002
0.18700000000000117,-0.012500000000000004
0.18799999999999883,-0.014000000000000005
0.18900000000000006,-0.004500000000000004
0.19000000000000128,-0.004500000000000004
0.19099999999999895,-0.003500000000000003
0.19200000000000017,-0.0020000000000000018
0.1930000000000014,-0.005500000000000005
0.19399999999999906,0.001999999999999995
0.19500000000000028,0.001999999999999995
0.19599999999999795,-0.0005000000000000004
0.19699999999999918,-0.0025000000000000022
0.1980000000000004,-0.005500000000000005
0.19899999999999807,-0.006500000000000006
0.1999999999999993,-0.0165
0.2010000000000005,-0.019500000000000003
0.20199999999999818,-0.014000000000000005
0.2029999999999994,-0.0085
0.20400000000000063,-0.0030000000000000027
0.2049999999999983,-0.0040000000000000036
0.20599999999999952,-0.0085
0.20700000000000074,-0.013000000000000005
0.2079999999999984,-0.015
0.20899999999999963,-0.013500000000000005
0.21000000000000085,-0.012500000000000004
0.21099999999999852,-0.018500000000000003
0.21199999999999974,-0.025
0.21300000000000097,-0.027500000000000004
0.21399999999999864,-0.0345
0.21499999999999986,-0.037000000000000005
0.21600000000000108,-0.0425
0.21699999999999875,-0.044500000000000005
0.21799999999999997,-0.036500000000000005
0.2190000000000012,-0.035
0.21999999999999886,-0.037000000000000005
0.22100000000000009,-0.041
0.2220000000000013,-0.038500000000000006
0.22299999999999898,-0.0285
0.2240000000000002,-0.012000000000000004
0.22500000000000142,0.0029999999999999957
0.2259999999999991,0.009000000000000001
0.2270000000000003,0.017999999999999995
0.22799999999999798,0.027500000000000004
0.2289999999999992,0.0415
0.23000000000000043,0.0575
0.2309999999999981,0.0685
0.23199999999999932,0.07450000000000001
0.23300000000000054,0.0895
0.2339999999999982,0.11150000000000002
0.23499999999999943,0.138
0.23600000000000065,0.1635
0.23699999999999832,0.187
0.23799999999999955,0.21150000000000002
0.23900000000000077,0.2445
0.23999999999999844,0.278
0.24099999999999966,0.3125
0.24200000000000088,0.385
0.24299999999999855,0.4535
0.24399999999999977,0.499
0.245000000000001,0.54
0.24599999999999866,0.578
0.2469999999999999,0.605
0.2480000000000011,0.609
0.24899999999999878,0.614
0.25,0.6145
0.2510000000000012,0.598
0.2519999999999989,0.5615
0.2530000000000001,0.5045000000000001
0.25400000000000134,0.4445
0.254999999999999,0.3975
0.2560000000000002,0.3545
0.25700000000000145,0.313
0.2579999999999991,0.28500000000000003
0.25900000000000034,0.262
0.259999999999998,0.22449999999999998
0.26099999999999923,0.1975
0.26200000000000045,0.1885
0.2629999999999981,0.1605
0.26399999999999935,0.1335
0.26500000000000057,0.10800000000000001
0.26599999999999824,0.08250000000000002
0.26699999999999946,0.056
0.2680000000000007,0.029999999999999992
0.26899999999999835,0.0049999999999999975
0.2699999999999996,-0.026000000000000002
0.2710000000000008,-0.0465
0.27199999999999847,-0.069
0.2729999999999997,-0.0835
0.2740000000000009,-0.095
0.2749999999999986,-0.116
0.2759999999999998,-0.13
0.277000000000001,-0.14150000000000001
0.2779999999999987,-0.1365
0.2789999999999999,-0.1265
0.28000000000000114,-0.122
0.2809999999999988,-0.119
0.28200000000000003,-0.11699999999999999
0.28300000000000125,-0.113
0.2839999999999989,-0.11
0.28500000000000014,-0.0975
0.28600000000000136,-0.0915
0.28699999999999903,-0.088
0.28800000000000026,-0.08
0.2890000000000015,-0.0655
0.28999999999999915,-0.054
0.29100000000000037,-0.056
0.29199999999999804,-0.052500000000000005
0.29299999999999926,-0.051000000000000004
0.2940000000000005,-0.047
0.29499999999999815,-0.053500000000000006
0.2959999999999994,-0.055
0.2970000000000006,-0.047
0.29799999999999827,-0.0495
0.2989999999999995,-0.04
0.3000000000000007,-0.035
0.3009999999999984,-0.0405
0.3019999999999996,-0.0405
0.3030000000000008,-0.036500000000000005
0.3039999999999985,-0.0325
0.3049999999999997,-0.032
0.30600000000000094,-0.027500000000000004
0.3069999999999986,-0.028000000000000004
0.30799999999999983,-0.030000000000000002
0.30900000000000105,-0.0285
0.3099999999999987,-0.023
0.31099999999999994,-0.012000000000000004
0.31200000000000117,-0.009500000000000001
0.31299999999999883,-0.009000000000000001
0.31400000000000006,-0.008
0.3150000000000013,-0.011000000000000003
0.31599999999999895,-0.012500000000000004
0.31700000000000017,-0.019500000000000003
0.3180000000000014,-0.028000000000000004
0.31899999999999906,-0.026000000000000002
0.3200000000000003,-0.018500000000000003
0.3210000000000015,-0.018000000000000002
0.3219999999999992,-0.022000000000000006
0.3230000000000004,-0.0225
0.32399999999999807,-0.020000000000000004
0.3249999999999993,-0.015
0.3260000000000005,-0.016
0.3269999999999982,-0.0155
0.3279999999999994,-0.012000000000000004
0.3290000000000006,-0.016
0.3299999999999983,-0.013000000000000005
0.3309999999999995,-0.014000000000000005
0.33200000000000074,-0.017
0.3329999999999984,-0.014000000000000005
0.33399999999999963,-0.011000000000000003
0.33500000000000085,-0.013500000000000005
0.3359999999999985,-0.014500000000000006
0.33699999999999974,-0.010500000000000002
0.33800000000000097,-0.013500000000000005
0.33899999999999864,-0.011500000000000003
0.33999999999999986,-0.011000000000000003
0.3410000000000011,-0.014500000000000006
0.34199999999999875,-0.012500000000000004
0.34299999999999997,-0.009500000000000001
0.3440000000000012,-0.009000000000000001
0.34499999999999886,-0.0085
0.3460000000000001,-0.006500000000000006
0.3470000000000013,-0.008
0.347999999999999,-0.004500000000000004
0.3490000000000002,-0.004500000000000004
0.3500000000000014,-0.0020000000000000018
0.3509999999999991,0.0024999999999999953
0.3520000000000003,-0.0040000000000000036
0.352999999999998,-0.0075
0.3539999999999992,-0.013500000000000005
0.3550000000000004,-0.020500000000000004
0.3559999999999981,-0.019000000000000003
0.3569999999999993,-0.018000000000000002
0.35800000000000054,-0.019000000000000003
0.3589999999999982,-0.024
0.35999999999999943,-0.022000000000000006
0.36100000000000065,-0.0165
0.3619999999999983,-0.014000000000000005
0.36299999999999955,-0.014500000000000006
0.36400000000000077,-0.021000000000000005
0.36499999999999844,-0.018000000000000002
0.36599999999999966,-0.014500000000000006
0.3670000000000009,-0.019500000000000003
0.36799999999999855,-0.014000000000000005
0.3689999999999998,-0.014500000000000006
0.370000000000001,0.0024999999999999953
0.37099999999999866,0.017499999999999995
0.3719999999999999,0.011000000000000003
0.3730000000000011,0.011000000000000003
0.3739999999999988,-0.0010000000000000009
0.375,-0.0005000000000000004
0.3760000000000012,0.0
0.3769999999999989,-0.003500000000000003
0.3780000000000001,-0.0030000000000000027
0.37900000000000134,-0.0020000000000000018
0.379999999999999,0.0010000000000000009
0.3810000000000002,-0.006000000000000005
0.38200000000000145,-0.010500000000000002
0.3829999999999991,-0.010500000000000002
0.38400000000000034,0.0
0.384999999999998,0.003999999999999997
0.38599999999999923,-0.0005000000000000004
0.38700000000000045,0.0010000000000000009
0.3879999999999981,-0.0015000000000000013
0.38899999999999935,0.0010000000000000009
0.39000000000000057,0.006999999999999999
0.39099999999999824,0.003499999999999996
0.39199999999999946,0.003999999999999997
0.3930000000000007,0.009500000000000001
0.39399999999999835,0.008
0.3949999999999996,-0.0010000000000000009
0.3960000000000008,0.0010000000000000009
0.39699999999999847,0.006999999999999999
0.3979999999999997,0.0005000000000000004
0.3990000000000009,-0.0010000000000000009
0.3999999999999986,0.001999999999999995
0.4009999999999998,0.009000000000000001
0.402000000000001,0.009500000000000001
0.4029999999999987,0.010500000000000002
0.4039999999999999,0.014999999999999993
0.40500000000000114,0.016499999999999994
0.4059999999999988,0.016499999999999994
0.40700000000000003,0.013999999999999992
0.40800000000000125,0.014999999999999993
0.4089999999999989,0.015999999999999993
0.41000000000000014,0.015999999999999993
0.41100000000000136,0.017499999999999995
0.41199999999999903,0.023
0.41300000000000026,0.022
0.4140000000000015,0.017999999999999995
0.41499999999999915,0.016999999999999994
0.41600000000000037,0.015499999999999993
0.41699999999999804,0.018499999999999996
0.41799999999999926,0.0215
0.4190000000000005,0.017999999999999995
0.41999999999999815,0.017499999999999995
0.4209999999999994,0.016999999999999994
0.4220000000000006,0.0225
0.42299999999999827,0.032999999999999995
0.4239999999999995,0.026500000000000003
0.4250000000000007,0.026500000000000003
0.4259999999999984,0.03149999999999999
0.4269999999999996,0.029999999999999992
0.4280000000000008,0.037
0.4289999999999985,0.038
0.4299999999999997,0.0375
0.43100000000000094,0.043500000000000004
0.4319999999999986,0.038
0.43299999999999983,0.031999999999999994
0.43400000000000105,0.03149999999999999
0.4349999999999987,0.033499999999999995
0.43599999999999994,0.0365
0.43700000000000117,0.0415
0.43799999999999883,0.0395
0.43900000000000006,0.039
0.4400000000000013,0.0395
0.44099999999999895,0.033999999999999996
0.44200000000000017,0.0365
0.4430000000000014,0.0375
0.44399999999999906,0.047499999999999994
0.4450000000000003,0.0555
0.4460000000000015,0.0515
0.4469999999999992,0.052
0.4480000000000004,0.0535
0.44899999999999807,0.0545
0.4499999999999993,0.0655
0.4510000000000005,0.07600000000000001
0.4519999999999982,0.067
0.4529999999999994,0.05999999999999999
0.4540000000000006,0.068
0.4549999999999983,0.07050000000000001
0.4559999999999995,0.065
0.45700000000000074,0.0675
0.4579999999999984,0.07750000000000001
0.45899999999999963,0.07350000000000001
0.46000000000000085,0.0645
0.4609999999999985,0.0665
0.46199999999999974,0.07100000000000001
0.46300000000000097,0.07750000000000001
0.46399999999999864,0.08000000000000002
0.46499999999999986,0.08150000000000002
0.4660000000000011,0.08499999999999999
0.46699999999999875,0.08150000000000002
0.46799999999999997,0.0885
0.4690000000000012,0.092
0.46999999999999886,0.0915
0.4710000000000001,0.10250000000000001
0.4720000000000013,0.10350000000000001
0.472999999999999,0.10900000000000001
0.4740000000000002,0.11100000000000002
0.4750000000000014,0.10600000000000001
0.4759999999999991,0.11449999999999999
0.4770000000000003,0.119
0.477999999999998,0.10950000000000001
0.4789999999999992,0.11699999999999999
0.4800000000000004,0.123
0.4809999999999981,0.118
0.4819999999999993,0.126
0.48300000000000054,0.1185
0.4839999999999982,0.1245
0.48499999999999943,0.1355
0.48600000000000065,0.134
0.4869999999999983,0.1375
0.48799999999999955,0.1395
0.48900000000000077,0.14300000000000002
0.48999999999999844,0.14500000000000002
0.49099999999999966,0.146
0.4920000000000009,0.15
0.49299999999999855,0.155
0.4939999999999998,0.154
0.495000000000001,0.1485
0.49599999999999866,0.1525
0.4969999999999999,0.154
0.4980000000000011,0.1495
0.4989999999999988,0.1485
0.5,0.137
0.5010000000000012,0.134
0.5019999999999989,0.154
0.5030000000000001,0.162
0.5040000000000013,0.157
0.504999999999999,0.1635
0.5060000000000002,0.169
0.5070000000000014,0.166
0.5079999999999991,0.1585
0.5090000000000003,0.1595
0.509999999999998,0.1675
0.5109999999999992,0.17300000000000001
0.5120000000000005,0.17200000000000001
0.5129999999999981,0.169
0.5139999999999993,0.17500000000000002
0.5150000000000006,0.17450000000000002
0.5159999999999982,0.168
0.5169999999999995,0.1685
0.5180000000000007,0.164
0.5189999999999984,0.163
0.5199999999999996,0.17550000000000002
0.5210000000000008,0.17350000000000002
0.5219999999999985,0.161
0.5229999999999997,0.157
0.5240000000000009,0.165
0.5249999999999986,0.17250000000000001
0.5259999999999998,0.163
0.527000000000001,0.154
0.5279999999999987,0.156
0.5289999999999999,0.162
0.5300000000000011,0.1625
0.5309999999999988,0.1535
0.532,0.1535
0.5330000000000013,0.149
0.5339999999999989,0.14350000000000002
0.5350000000000001,0.1405
0.5360000000000014,0.1345
0.536999999999999,0.136
0.5380000000000003,0.133
0.5390000000000015,0.1315
0.5399999999999991,0.128
0.5410000000000004,0.125
0.541999999999998,0.1225
0.5429999999999993,0.11599999999999999
0.5440000000000005,0.11699999999999999
0.5449999999999982,0.119
0.5459999999999994,0.11350000000000002
0.5470000000000006,0.11449999999999999
0.5479999999999983,0.11100000000000002
0.5489999999999995,0.0995
0.5500000000000007,0.1
0.5509999999999984,0.10400000000000001
0.5519999999999996,0.10400000000000001
0.5530000000000008,0.10200000000000001
0.5539999999999985,0.10600000000000001
0.5549999999999997,0.10250000000000001
0.5560000000000009,0.097
0.5569999999999986,0.0915
0.5579999999999998,0.0865
0.559000000000001,0.087
0.5599999999999987,0.08100000000000002
0.5609999999999999,0.07400000000000001
0.5620000000000012,0.07150000000000001
0.5629999999999988,0.07850000000000001
0.5640000000000001,0.07450000000000001
0.5650000000000013,0.064
0.565999999999999,0.069
0.5670000000000002,0.07
0.5680000000000014,0.07050000000000001
0.5689999999999991,0.069
0.5700000000000003,0.06199999999999999
0.5710000000000015,0.0645
0.5719999999999992,0.0635
0.5730000000000004,0.064
0.5739999999999981,0.0585
0.5749999999999993,0.047999999999999994
0.5760000000000005,0.044000000000000004
0.5769999999999982,0.048499999999999995
0.5779999999999994,0.052
0.5790000000000006,0.049999999999999996
0.5799999999999983,0.047499999999999994
0.5809999999999995,0.04549999999999999
0.5820000000000007,0.054
0.5829999999999984,0.0535
0.5839999999999996,0.047499999999999994
0.5850000000000009,0.051
0.5859999999999985,0.048999999999999995
0.5869999999999997,0.0425
0.588000000000001,0.04499999999999999
0.5889999999999986,0.04449999999999999
0.5899999999999999,0.04699999999999999
0.5910000000000011,0.0425
0.5919999999999987,0.033999999999999996
0.593,0.0425
0.5940000000000012,0.034499999999999996
0.5949999999999989,0.032999999999999995
0.5960000000000001,0.0365
0.5970000000000013,0.030999999999999993
0.597999999999999,0.030499999999999992
0.5990000000000002,0.034999999999999996
0.6000000000000014,0.030499999999999992
0.6009999999999991,0.0245
0.6020000000000003,0.031999999999999994
0.602999999999998,0.032499999999999994
0.6039999999999992,0.038
0.6050000000000004,0.037
0.6059999999999981,0.027500000000000004
0.6069999999999993,0.030999999999999993
0.6080000000000005,0.030999999999999993
0.6089999999999982,0.029999999999999992
0.6099999999999994,0.034999999999999996
0.6110000000000007,0.034499999999999996
0.6119999999999983,0.0355
0.6129999999999995,0.033499999999999995
0.6140000000000008,0.0355
0.6149999999999984,0.036
0.6159999999999997,0.027500000000000004
0.6170000000000009,0.026500000000000003
0.6179999999999986,0.02849999999999999
0.6189999999999998,0.030499999999999992
0.620000000000001,0.030499999999999992
0.6209999999999987,0.02899999999999999
0.6219999999999999,0.02899999999999999
0.6230000000000011,0.030499999999999992
0.6239999999999988,0.034499999999999996
0.625,0.034999999999999996
0.6260000000000012,0.032999999999999995
0.6269999999999989,0.0355
0.6280000000000001,0.0385
0.6290000000000013,0.037
0.629999999999999,0.0415
0.6310000000000002,0.0395
0.6320000000000014,0.033999999999999996
0.6329999999999991,0.033999999999999996
0.6340000000000003,0.034999999999999996
0.634999999999998,0.0375
0.6359999999999992,0.032499999999999994
0.6370000000000005,0.031999999999999994
0.6379999999999981,0.030999999999999993
0.6389999999999993,0.024
0.6400000000000006,0.024
0.6409999999999982,0.0215
0.6419999999999995,0.022
0.6430000000000007,0.027000000000000003
0.6439999999999984,0.025
0.6449999999999996,0.0235
0.6460000000000008,0.0215
0.6469999999999985,0.024
0.6479999999999997,0.032999999999999995
0.6490000000000009,0.0365
0.6499999999999986,0.0395
0.6509999999999998,0.04549999999999999
0.652000000000001,0.04549999999999999
0.6529999999999987,0.04
0.6539999999999999,0.036
0.6550000000000011,0.031999999999999994
0.6559999999999988,0.036
0.657,0.032499999999999994
0.6580000000000013,0.032499999999999994
0.6589999999999989,0.036
0.6600000000000001,0.02949999999999999
0.6610000000000014,0.026000000000000002
0.661999999999999,0.025
0.6630000000000003,0.025
0.6640000000000015,0.023
0.6649999999999991,0.025500000000000002
0.6660000000000004,0.027000000000000003
0.666999999999998,0.025500000000000002
0.6679999999999993,0.033999999999999996
0.6690000000000005,0.0405
0.6699999999999982,0.043500000000000004
0.6709999999999994,0.0425
0.6720000000000006,0.041
0.6729999999999983,0.044000000000000004
0.6739999999999995,0.039
0.6750000000000007,0.0355
0.6759999999999984,0.0355
0.6769999999999996,0.034999999999999996
0.6780000000000008,0.034999999999999996
0.6789999999999985,0.037
0.6799999999999997,0.037
0.6810000000000009,0.036
0.6819999999999986,0.0355
0.6829999999999998,0.036
0.684000000000001,0.033499999999999995
0.6849999999999987,0.030999999999999993
0.6859999999999999,0.04699999999999999
0.6870000000000012,0.043500000000000004
0.6879999999999988,0.032499999999999994
0.6890000000000001,0.0395
0.6900000000000013,0.033999999999999996
0.690999999999999,0.0355
0.6920000000000002,0.033999999999999996
0.6930000000000014,0.032499999999999994
0.6939999999999991,0.0415
0.6950000000000003,0.034999999999999996
0.6960000000000015,0.02899999999999999
0.6969999999999992,0.02849999999999999
0.6980000000000004,0.025
0.6989999999999981,0.026000000000000002
0.6999999999999993,0.026500000000000003
0.7010000000000005,0.017999999999999995
0.7019999999999982,0.018499999999999996
0.7029999999999994,0.024
0.7040000000000006,0.018499999999999996
0.7049999999999983,0.019999999999999997
0.7059999999999995,0.022
0.7070000000000007,0.022
0.7079999999999984,0.022
0.7089999999999996,0.018499999999999996
0.7100000000000009,0.019999999999999997
0.7109999999999985,0.019999999999999997
0.7119999999999997,0.0245
0.713000000000001,0.03149999999999999
0.7139999999999986,0.020999999999999998
0.7149999999999999,0.016999999999999994
0.7160000000000011,0.016999999999999994
0.7169999999999987,0.014999999999999993
0.718,0.019499999999999997
0.7190000000000012,0.018499999999999996
0.7199999999999989,0.018499999999999996
0.7210000000000001,0.018999999999999996
0.7220000000000013,0.01299999999999999
0.722999999999999,0.011000000000000003
0.7240000000000002,0.011500000000000003
0.7250000000000014,0.01299999999999999
0.7259999999999991,0.014499999999999992
0.7270000000000003,0.015999999999999993
0.727999999999998,0.020499999999999997
0.7289999999999992,0.020499999999999997
0.7300000000000004,0.020499999999999997
0.7309999999999981,0.019499999999999997
0.7319999999999993,0.0215
0.7330000000000005,0.020499999999999997
0.7339999999999982,0.015999999999999993
0.7349999999999994,0.0235
0.7360000000000007,0.023
0.7369999999999983,0.015999999999999993
0.7379999999999995,0.017999999999999995
0.7390000000000008,0.019999999999999997
0.7399999999999984,0.010000000000000002
0.7409999999999997,0.008
0.7420000000000009,0.015499999999999993
0.7429999999999986,0.016499999999999994
0.7439999999999998,0.016999999999999994
0.745000000000001,0.016999999999999994
0.7459999999999987,0.017499999999999995
0.7469999999999999,0.020499999999999997
0.7480000000000011,0.018999999999999996
0.7489999999999988,0.014499999999999992
0.75,0.014499999999999992
0.7510000000000012,0.014499999999999992
0.7519999999999989,0.017499999999999995
0.7530000000000001,0.0225
0.7540000000000013,0.023
0.754999999999999,0.0245
0.7560000000000002,0.020999999999999998
0.7570000000000014,0.023
0.7579999999999991,0.025
0.7590000000000003,0.019499999999999997
0.759999999999998,0.012500000000000004
0.7609999999999992,0.0075
0.7620000000000005,0.015999999999999993
0.7629999999999981,0.017999999999999995
0.7639999999999993,0.017999999999999995
0.7650000000000006,0.022
0.7659999999999982,0.0215
0.7669999999999995,0.018999999999999996
0.7680000000000007,0.018499999999999996
0.7689999999999984,0.012500000000000004
0.7699999999999996,0.018499999999999996
0.7710000000000008,0.026500000000000003
0.7719999999999985,0.017999999999999995
0.7729999999999997,0.011000000000000003
0.7740000000000009,0.003999999999999997
0.7749999999999986,0.005499999999999998
0.7759999999999998,0.011000000000000003
0.777000000000001,0.013499999999999991
0.7779999999999987,0.016999999999999994
0.7789999999999999,0.0235
0.7800000000000011,0.025
0.7809999999999988,0.017999999999999995
0.782,0.015999999999999993
0.7830000000000013,0.025
0.7839999999999989,0.025500000000000002
0.7850000000000001,0.012500000000000004
0.7860000000000014,0.014499999999999992
0.786999999999999,0.013999999999999992
0.7880000000000003,0.016999999999999994
0.7890000000000015,0.018499999999999996
0.7899999999999991,0.012000000000000004
0.7910000000000004,0.013499999999999991
0.791999999999998,0.012500000000000004
0.7929999999999993,0.011500000000000003
0.7940000000000005,0.0085
0.7949999999999982,0.006999999999999999
0.7959999999999994,0.011500000000000003
0.7970000000000006,0.015499999999999993
0.7979999999999983,0.013999999999999992
0.7989999999999995,0.013999999999999992
