timestamp,value
0.0,0.0
0.0010000000000012221,-0.0030000000000000027
0.002000000000000668,-0.009500000000000008
0.0030000000000001137,-0.01050000000000001
0.004000000000001336,-0.010000000000000009
0.005000000000000782,-0.007000000000000006
0.006000000000000227,-0.006500000000000006
0.0070000000000014495,0.002999999999999989
0.008000000000000895,0.0014999999999999875
0.009000000000000341,-0.0015000000000000013
0.009999999999999787,0.002999999999999989
0.011000000000001009,0.0
0.012000000000000455,0.0034999999999999892
0.0129999999999999,0.0034999999999999892
0.014000000000001123,0.0024999999999999883
0.015000000000000568,0.002999999999999989
0.016000000000000014,0.002999999999999989
0.017000000000001236,0.00449999999999999
0.018000000000000682,0.0049999999999999906
0.019000000000000128,0.0010000000000000009
0.02000000000000135,-0.008500000000000008
0.021000000000000796,-0.008000000000000007
0.02200000000000024,-0.003500000000000003
0.022999999999999687,-0.0025000000000000022
0.02400000000000091,-0.0020000000000000018
0.025000000000000355,-0.0020000000000000018
0.0259999999999998,0.0034999999999999892
0.027000000000001023,0.001999999999999988
0.02800000000000047,-0.003500000000000003
0.028999999999999915,0.002999999999999989
0.030000000000001137,0.00399999999999999
0.031000000000000583,0.00449999999999999
0.03200000000000003,0.0024999999999999883
0.03300000000000125,0.0024999999999999883
0.034000000000000696,0.0049999999999999906
0.03500000000000014,-0.0040000000000000036
0.036000000000001364,0.0059999999999999915
0.03700000000000081,0.008999999999999994
0.038000000000000256,-0.0030000000000000027
0.0389999999999997,-0.0030000000000000027
0.040000000000000924,0.0
0.04100000000000037,-0.007000000000000006
0.041999999999999815,-0.0030000000000000027
0.04300000000000104,0.0034999999999999892
0.04400000000000048,-0.004500000000000004
0.04499999999999993,0.0024999999999999883
0.04600000000000115,0.0014999999999999875
0.0470000000000006,-0.0050000000000000044
0.04800000000000004,-0.007500000000000007
0.049000000000001265,-0.0050000000000000044
0.05000000000000071,0.0014999999999999875
0.051000000000000156,-0.0005000000000000004
0.05200000000000138,-0.0020000000000000018
0.053000000000000824,-0.0010000000000000009
0.05400000000000027,0.0005000000000000004
0.054999999999999716,-0.0010000000000000009
0.05600000000000094,-0.0010000000000000009
0.057000000000000384,0.0059999999999999915
0.05799999999999983,0.0010000000000000009
0.05900000000000105,-0.010000000000000009
0.0600000000000005,-0.007000000000000006
0.06099999999999994,-0.0020000000000000018
0.062000000000001165,-0.004500000000000004
0.06300000000000061,-0.0050000000000000044
0.06400000000000006,-0.003500000000000003
0.06500000000000128,-0.0015000000000000013
0.06600000000000072,0.00449999999999999
0.06700000000000017,0.0010000000000000009
0.06800000000000139,-0.0010000000000000009
0.06900000000000084,0.00449999999999999
0.07000000000000028,0.006499999999999992
0.07099999999999973,0.0010000000000000009
0.07200000000000095,0.0014999999999999875
0.0730000000000004,-0.0025000000000000022
0.07399999999999984,-0.007000000000000006
0.07500000000000107,-0.006500000000000006
0.07600000000000051,-0.008000000000000007
0.07699999999999996,0.005499999999999991
0.07800000000000118,0.017999999999999988
0.07900000000000063,0.01899999999999999
0.08000000000000007,0.011999999999999997
0.0810000000000013,0.013999999999999999
0.08200000000000074,0.022499999999999992
0.08300000000000018,0.023999999999999994
0.0840000000000014,0.023999999999999994
0.08500000000000085,0.024499999999999994
0.0860000000000003,0.026499999999999996
0.08699999999999974,0.026499999999999996
0.08800000000000097,0.03699999999999999
0.08900000000000041,0.032
0.08999999999999986,0.02149999999999999
0.09100000000000108,0.032
0.09200000000000053,0.0295
0.09299999999999997,0.031
0.0940000000000012,0.03549999999999999
0.09500000000000064,0.03549999999999999
0.09600000000000009,0.0305
0.09700000000000131,0.024999999999999994
0.09800000000000075,0.027999999999999997
0.0990000000000002,0.025999999999999995
0.10000000000000142,0.028499999999999998
0.10100000000000087,0.03399999999999999
0.10200000000000031,0.03399999999999999
0.10299999999999976,0.0305
0.10400000000000098,0.027499999999999997
0.10500000000000043,0.0315
0.10599999999999987,0.031
0.1070000000000011,0.03549999999999999
0.10800000000000054,0.051500000000000004
0.10899999999999999,0.048
0.11000000000000121,0.040999999999999995
0.11100000000000065,0.0495
0.1120000000000001,0.053000000000000005
0.11300000000000132,0.0465
0.11400000000000077,0.0475
0.11500000000000021,0.052000000000000005
0.11600000000000144,0.05699999999999998
0.11700000000000088,0.061999999999999986
0.11800000000000033,0.06349999999999999
0.11899999999999977,0.06349999999999999
0.120000000000001,0.059999999999999984
0.12100000000000044,0.06549999999999999
0.12199999999999989,0.06799999999999999
0.12300000000000111,0.06699999999999999
0.12400000000000055,0.06799999999999999
0.125,0.0725
0.12600000000000122,0.0725
0.12700000000000067,0.0725
0.1280000000000001,0.0775
0.12900000000000134,0.078
0.13000000000000078,0.082
0.13100000000000023,0.0845
0.13200000000000145,0.079
0.1330000000000009,0.0815
0.13400000000000034,0.08600000000000001
0.1349999999999998,0.0745
0.136000000000001,0.06749999999999999
0.13700000000000045,0.0725
0.1379999999999999,0.0715
0.13900000000000112,0.06799999999999999
0.14000000000000057,0.0725
0.14100000000000001,0.073
0.14200000000000124,0.0715
0.14300000000000068,0.0715
0.14400000000000013,0.071
0.14500000000000135,0.06949999999999999
0.1460000000000008,0.06599999999999999
0.14700000000000024,0.06599999999999999
0.1479999999999997,0.061499999999999985
0.1490000000000009,0.05949999999999998
0.15000000000000036,0.071
0.1509999999999998,0.076
0.15200000000000102,0.06649999999999999
0.15300000000000047,0.059999999999999984
0.15399999999999991,0.053500000000000006
0.15500000000000114,0.051500000000000004
0.15600000000000058,0.052000000000000005
0.15700000000000003,0.040499999999999994
0.15800000000000125,0.03449999999999999
0.1590000000000007,0.031
0.16000000000000014,0.0295
0.16100000000000136,0.0315
0.1620000000000008,0.027499999999999997
0.16300000000000026,0.028499999999999998
0.1639999999999997,0.024999999999999994
0.16500000000000092,0.023999999999999994
0.16600000000000037,0.01999999999999999
0.16699999999999982,0.011499999999999996
0.16800000000000104,0.01849999999999999
0.16900000000000048,0.013499999999999998
0.16999999999999993,0.008499999999999994
0.17100000000000115,0.010999999999999996
0.1720000000000006,0.0
0.17300000000000004,-0.009000000000000008
0.17400000000000126,-0.008500000000000008
0.1750000000000007,-0.009000000000000008
0.17600000000000016,-0.008000000000000007
0.17700000000000138,-0.005500000000000005
0.17800000000000082,-0.007500000000000007
0.17900000000000027,-0.01150000000000001
0.17999999999999972,-0.013500000000000012
0.18100000000000094,-0.01150000000000001
0.18200000000000038,-0.01150000000000001
0.18299999999999983,-0.013000000000000012
0.18400000000000105,-0.009000000000000008
0.1850000000000005,-0.009000000000000008
0.18599999999999994,-0.01150000000000001
0.18700000000000117,-0.01100000000000001
0.1880000000000006,-0.009500000000000008
0.18900000000000006,-0.008500000000000008
0.19000000000000128,-0.009500000000000008
0.19100000000000072,-0.01050000000000001
0.19200000000000017,-0.010000000000000009
0.1930000000000014,-0.008000000000000007
0.19400000000000084,-0.009500000000000008
0.19500000000000028,-0.018000000000000002
0.19599999999999973,-0.021000000000000005
0.19700000000000095,-0.015
0.1980000000000004,-0.014499999999999999
0.19899999999999984,-0.014499999999999999
0.20000000000000107,-0.020000000000000004
0.2010000000000005,-0.029500000000000005
0.20199999999999996,-0.027500000000000004
0.20300000000000118,-0.023000000000000007
0.20400000000000063,-0.021500000000000005
0.20500000000000007,-0.019500000000000003
0.2060000000000013,-0.019500000000000003
0.20700000000000074,-0.0175
0.20800000000000018,-0.013500000000000012
0.2090000000000014,-0.018000000000000002
0.21000000000000085,-0.024500000000000008
0.2110000000000003,-0.028000000000000004
0.21199999999999974,-0.03350000000000001
0.21300000000000097,-0.04150000000000001
0.2140000000000004,-0.04650000000000001
0.21499999999999986,-0.053000000000000005
0.21600000000000108,-0.04900000000000001
0.21700000000000053,-0.046000000000000006
0.21799999999999997,-0.038500000000000006
0.2190000000000012,-0.036000000000000004
0.22000000000000064,-0.0425
0.22100000000000009,-0.035500000000000004
0.2220000000000013,-0.034
0.22300000000000075,-0.023500000000000007
0.2240000000000002,-0.016
0.22500000000000142,0.0034999999999999892
0.22600000000000087,0.01949999999999999
0.2270000000000003,0.02149999999999999
0.22799999999999976,0.03949999999999999
0.22900000000000098,0.0495
0.23000000000000043,0.060999999999999985
0.23099999999999987,0.0705
0.2320000000000011,0.08899999999999998
0.23300000000000054,0.12049999999999998
0.23399999999999999,0.15199999999999997
0.2350000000000012,0.1815
0.23600000000000065,0.196
0.2370000000000001,0.22199999999999998
0.23800000000000132,0.25949999999999995
0.23900000000000077,0.304
0.2400000000000002,0.3665
0.24100000000000144,0.4325
0.24200000000000088,0.4784999999999999
0.24300000000000033,0.5105
0.24399999999999977,0.5515
0.245000000000001,0.5965
0.24600000000000044,0.5975
0.2469999999999999,0.584
0.2480000000000011,0.585
0.24900000000000055,0.5685
0.25,0.54
0.2510000000000012,0.499
0.25200000000000067,0.4495
0.2530000000000001,0.39899999999999997
0.25400000000000134,0.359
0.2550000000000008,0.307
0.2560000000000002,0.26199999999999996
0.25700000000000145,0.247
0.2580000000000009,0.22349999999999998
0.25900000000000034,0.1895
0.2599999999999998,0.16299999999999998
0.261000000000001,0.14550000000000002
0.26200000000000045,0.135
0.2629999999999999,0.12099999999999998
0.2640000000000011,0.09299999999999999
0.26500000000000057,0.06399999999999999
0.266,0.03349999999999999
0.26700000000000124,0.012999999999999998
0.2680000000000007,-0.010000000000000009
0.26900000000000013,-0.031000000000000007
0.27000000000000135,-0.054000000000000006
0.2710000000000008,-0.0795
0.27200000000000024,-0.08700000000000001
0.2729999999999997,-0.09100000000000001
0.2740000000000009,-0.08850000000000001
0.27500000000000036,-0.0975
0.2759999999999998,-0.10750000000000001
0.277000000000001,-0.096
0.27800000000000047,-0.0945
0.2789999999999999,-0.093
0.28000000000000114,-0.08900000000000001
0.2810000000000006,-0.094
0.28200000000000003,-0.0805
0.28300000000000125,-0.067
0.2840000000000007,-0.061000000000000006
0.28500000000000014,-0.0635
0.28600000000000136,-0.07450000000000001
0.2870000000000008,-0.065
0.28800000000000026,-0.061000000000000006
0.2889999999999997,-0.062000000000000006
0.2900000000000009,-0.052500000000000005
0.29100000000000037,-0.04850000000000001
0.2919999999999998,-0.0495
0.29300000000000104,-0.053500000000000006
0.2940000000000005,-0.05
0.29499999999999993,-0.045000000000000005
0.29600000000000115,-0.045000000000000005
0.2970000000000006,-0.04150000000000001
0.29800000000000004,-0.03950000000000001
0.29900000000000126,-0.036000000000000004
0.3000000000000007,-0.03150000000000001
0.30100000000000016,-0.030500000000000006
0.3020000000000014,-0.031000000000000007
0.3030000000000008,-0.03150000000000001
0.30400000000000027,-0.029000000000000005
0.3049999999999997,-0.026000000000000002
0.30600000000000094,-0.027000000000000003
0.3070000000000004,-0.027500000000000004
0.30799999999999983,-0.020500000000000004
0.30900000000000105,-0.017
0.3100000000000005,-0.018500000000000003
0.31099999999999994,-0.019500000000000003
0.31200000000000117,-0.023000000000000007
0.3130000000000006,-0.02500000000000001
0.31400000000000006,-0.027000000000000003
0.3150000000000013,-0.024000000000000007
0.3160000000000007,-0.02500000000000001
0.31700000000000017,-0.03200000000000001
0.3180000000000014,-0.03250000000000001
0.31900000000000084,-0.029000000000000005
0.3200000000000003,-0.026500000000000003
0.32099999999999973,-0.024500000000000008
0.32200000000000095,-0.021000000000000005
0.3230000000000004,-0.029000000000000005
0.32399999999999984,-0.0345
0.32500000000000107,-0.030000000000000006
0.3260000000000005,-0.03150000000000001
0.32699999999999996,-0.030500000000000006
0.3280000000000012,-0.03250000000000001
0.3290000000000006,-0.03250000000000001
0.33000000000000007,-0.029500000000000005
0.3310000000000013,-0.03300000000000001
0.33200000000000074,-0.03150000000000001
0.3330000000000002,-0.026500000000000003
0.3340000000000014,-0.027000000000000003
0.33500000000000085,-0.029000000000000005
0.3360000000000003,-0.03350000000000001
0.33699999999999974,-0.038500000000000006
0.33800000000000097,-0.036000000000000004
0.3390000000000004,-0.031000000000000007
0.33999999999999986,-0.031000000000000007
0.3410000000000011,-0.037500000000000006
0.3420000000000005,-0.03200000000000001
0.34299999999999997,-0.030500000000000006
0.3440000000000012,-0.04050000000000001
0.34500000000000064,-0.03250000000000001
0.3460000000000001,-0.023500000000000007
0.3470000000000013,-0.021000000000000005
0.34800000000000075,-0.026500000000000003
0.3490000000000002,-0.0345
0.3500000000000014,-0.03350000000000001
0.35100000000000087,-0.03150000000000001
0.3520000000000003,-0.030000000000000006
0.35299999999999976,-0.036000000000000004
0.354000000000001,-0.03150000000000001
0.3550000000000004,-0.027000000000000003
0.35599999999999987,-0.03150000000000001
0.3570000000000011,-0.03250000000000001
0.35800000000000054,-0.031000000000000007
0.359,-0.028500000000000004
0.3600000000000012,-0.030500000000000006
0.36100000000000065,-0.03350000000000001
0.3620000000000001,-0.036500000000000005
0.3630000000000013,-0.03350000000000001
0.36400000000000077,-0.03200000000000001
0.3650000000000002,-0.031000000000000007
0.36600000000000144,-0.024000000000000007
0.3670000000000009,-0.023500000000000007
0.3680000000000003,-0.029000000000000005
0.3689999999999998,-0.022000000000000006
0.370000000000001,-0.019500000000000003
0.37100000000000044,-0.02550000000000001
0.3719999999999999,-0.027500000000000004
0.3730000000000011,-0.029500000000000005
0.37400000000000055,-0.027000000000000003
0.375,-0.03300000000000001
0.3760000000000012,-0.028500000000000004
0.37700000000000067,-0.024500000000000008
0.3780000000000001,-0.029000000000000005
0.37900000000000134,-0.028000000000000004
0.3800000000000008,-0.03300000000000001
0.3810000000000002,-0.030500000000000006
0.38200000000000145,-0.023000000000000007
0.3830000000000009,-0.026000000000000002
0.38400000000000034,-0.023500000000000007
0.3849999999999998,-0.0155
0.386000000000001,-0.018000000000000002
0.38700000000000045,-0.029000000000000005
0.3879999999999999,-0.03150000000000001
0.3890000000000011,-0.020000000000000004
0.39000000000000057,-0.014499999999999999
0.391,-0.018000000000000002
0.39200000000000124,-0.022500000000000006
0.3930000000000007,-0.020000000000000004
0.39400000000000013,-0.019000000000000003
0.39500000000000135,-0.021000000000000005
0.3960000000000008,-0.022000000000000006
0.39700000000000024,-0.026000000000000002
0.39800000000000146,-0.028000000000000004
0.3990000000000009,-0.02500000000000001
0.40000000000000036,-0.022000000000000006
0.4009999999999998,-0.02550000000000001
0.402000000000001,-0.027000000000000003
0.40300000000000047,-0.03250000000000001
0.4039999999999999,-0.036000000000000004
0.40500000000000114,-0.031000000000000007
0.4060000000000006,-0.028500000000000004
0.40700000000000003,-0.023500000000000007
0.40800000000000125,-0.020500000000000004
0.4090000000000007,-0.019500000000000003
0.41000000000000014,-0.016
0.41100000000000136,-0.009500000000000008
0.4120000000000008,-0.01200000000000001
0.41300000000000026,-0.019000000000000003
0.4139999999999997,-0.017
0.4150000000000009,-0.018000000000000002
0.41600000000000037,-0.0175
0.4169999999999998,-0.0165
0.41800000000000104,-0.013000000000000012
0.4190000000000005,-0.013000000000000012
0.41999999999999993,-0.018000000000000002
0.42100000000000115,-0.01200000000000001
0.4220000000000006,-0.008000000000000007
0.42300000000000004,-0.005500000000000005
0.42400000000000126,-0.0040000000000000036
0.4250000000000007,0.0014999999999999875
0.42600000000000016,0.0024999999999999883
0.4270000000000014,-0.0015000000000000013
0.4280000000000008,0.00449999999999999
0.42900000000000027,-0.0015000000000000013
0.4299999999999997,-0.0015000000000000013
0.43100000000000094,0.009999999999999995
0.4320000000000004,0.006499999999999992
0.43299999999999983,0.005499999999999991
0.43400000000000105,0.011999999999999997
0.4350000000000005,0.010499999999999995
0.43599999999999994,0.009499999999999995
0.43700000000000117,0.008999999999999994
0.4380000000000006,0.010999999999999996
0.43900000000000006,0.011999999999999997
0.4400000000000013,0.009499999999999995
0.4410000000000007,0.0165
0.44200000000000017,0.01949999999999999
0.4430000000000014,0.01899999999999999
0.44400000000000084,0.01849999999999999
0.4450000000000003,0.0295
0.44599999999999973,0.0305
0.44700000000000095,0.027499999999999997
0.4480000000000004,0.03299999999999999
0.44899999999999984,0.025999999999999995
0.45000000000000107,0.0325
0.4510000000000005,0.03699999999999999
0.45199999999999996,0.03849999999999999
0.4530000000000012,0.045
0.4540000000000006,0.041499999999999995
0.45500000000000007,0.041499999999999995
0.4560000000000013,0.040999999999999995
0.45700000000000074,0.05
0.4580000000000002,0.05649999999999998
0.4590000000000014,0.049
0.46000000000000085,0.045
0.4610000000000003,0.0455
0.46199999999999974,0.0465
0.46300000000000097,0.049
0.4640000000000004,0.05600000000000001
0.46499999999999986,0.05500000000000001
0.4660000000000011,0.05550000000000001
0.4670000000000005,0.05799999999999998
0.46799999999999997,0.06549999999999999
0.4690000000000012,0.073
0.47000000000000064,0.0785
0.4710000000000001,0.0795
0.4720000000000013,0.076
0.47300000000000075,0.0785
0.4740000000000002,0.0855
0.4750000000000014,0.09449999999999999
0.47600000000000087,0.084
0.4770000000000003,0.0785
0.47799999999999976,0.0835
0.479000000000001,0.08600000000000001
0.4800000000000004,0.09049999999999998
0.48099999999999987,0.08799999999999998
0.4820000000000011,0.09299999999999999
0.48300000000000054,0.09649999999999999
0.484,0.102
0.4850000000000012,0.102
0.48600000000000065,0.102
0.4870000000000001,0.105
0.4880000000000013,0.102
0.48900000000000077,0.112
0.4900000000000002,0.1165
0.49100000000000144,0.11
0.4920000000000009,0.11
0.4930000000000003,0.11750000000000001
0.4939999999999998,0.117
0.495000000000001,0.114
0.49600000000000044,0.111
0.4969999999999999,0.113
0.4980000000000011,0.12399999999999999
0.49900000000000055,0.12049999999999998
0.5,0.1165
0.5010000000000012,0.11949999999999998
0.5020000000000007,0.11750000000000001
0.5030000000000001,0.11949999999999998
0.5040000000000013,0.1275
0.5050000000000008,0.1315
0.5060000000000002,0.1335
0.5070000000000014,0.1315
0.5080000000000009,0.1305
0.5090000000000003,0.136
0.5099999999999998,0.1385
0.511000000000001,0.136
0.5120000000000005,0.1345
0.5129999999999999,0.134
0.5140000000000011,0.132
0.5150000000000006,0.1325
0.516,0.1285
0.5170000000000012,0.12499999999999999
0.5180000000000007,0.126
0.5190000000000001,0.12349999999999998
0.5200000000000014,0.12349999999999998
0.5210000000000008,0.12399999999999999
0.5220000000000002,0.1265
0.5230000000000015,0.12399999999999999
0.5240000000000009,0.11800000000000001
0.5250000000000004,0.12399999999999999
0.5259999999999998,0.12449999999999999
0.527000000000001,0.12499999999999999
0.5280000000000005,0.12299999999999998
0.5289999999999999,0.114
0.5300000000000011,0.1145
0.5310000000000006,0.11750000000000001
0.532,0.11949999999999998
0.5330000000000013,0.1165
0.5340000000000007,0.11
0.5350000000000001,0.111
0.5360000000000014,0.1075
0.5370000000000008,0.09849999999999999
0.5380000000000003,0.09549999999999999
0.5389999999999997,0.08600000000000001
0.5400000000000009,0.083
0.5410000000000004,0.085
0.5419999999999998,0.083
0.543000000000001,0.085
0.5440000000000005,0.0805
0.5449999999999999,0.0815
0.5460000000000012,0.0765
0.5470000000000006,0.0725
0.548,0.079
0.5490000000000013,0.0705
0.5500000000000007,0.06549999999999999
0.5510000000000002,0.06399999999999999
0.5520000000000014,0.059999999999999984
0.5530000000000008,0.05699999999999998
0.5540000000000003,0.0475
0.5549999999999997,0.049
0.5560000000000009,0.049
0.5570000000000004,0.03899999999999999
0.5579999999999998,0.03749999999999999
0.559000000000001,0.03499999999999999
0.5600000000000005,0.0325
0.5609999999999999,0.031
0.5620000000000012,0.032
0.5630000000000006,0.03649999999999999
0.5640000000000001,0.03599999999999999
0.5650000000000013,0.03299999999999999
0.5660000000000007,0.031
0.5670000000000002,0.03299999999999999
0.5680000000000014,0.031
0.5690000000000008,0.02099999999999999
0.5700000000000003,0.02049999999999999
0.5709999999999997,0.027999999999999997
0.572000000000001,0.0295
0.5730000000000004,0.02099999999999999
0.5739999999999998,0.017499999999999988
0.5750000000000011,0.01849999999999999
0.5760000000000005,0.0165
0.577,0.013999999999999999
0.5780000000000012,0.007499999999999993
0.5790000000000006,0.006499999999999992
0.5800000000000001,0.002999999999999989
0.5810000000000013,-0.0010000000000000009
0.5820000000000007,-0.0050000000000000044
0.5830000000000002,-0.0015000000000000013
0.5840000000000014,0.011499999999999996
0.5850000000000009,0.015
0.5860000000000003,0.009999999999999995
0.5869999999999997,0.001999999999999988
0.588000000000001,0.0005000000000000004
0.5890000000000004,0.0034999999999999892
0.5899999999999999,0.012999999999999998
0.5910000000000011,0.009999999999999995
0.5920000000000005,0.0034999999999999892
0.593,0.006999999999999992
0.5940000000000012,0.0010000000000000009
0.5950000000000006,-0.0020000000000000018
0.5960000000000001,-0.0030000000000000027
0.5970000000000013,-0.0020000000000000018
0.5980000000000008,-0.0025000000000000022
0.5990000000000002,-0.004500000000000004
0.6000000000000014,-0.007000000000000006
0.6010000000000009,-0.007000000000000006
0.6020000000000003,-0.004500000000000004
0.6029999999999998,-0.0020000000000000018
0.604000000000001,-0.0020000000000000018
0.6050000000000004,-0.006000000000000005
0.6059999999999999,0.0005000000000000004
0.6070000000000011,0.007999999999999993
0.6080000000000005,0.011499999999999996
0.609,0.012499999999999997
0.6100000000000012,0.012499999999999997
0.6110000000000007,0.010499999999999995
0.6120000000000001,0.0005000000000000004
0.6130000000000013,-0.005500000000000005
0.6140000000000008,-0.0020000000000000018
0.6150000000000002,0.0014999999999999875
0.6160000000000014,-0.0015000000000000013
0.6170000000000009,-0.0015000000000000013
0.6180000000000003,0.0005000000000000004
0.6189999999999998,0.0024999999999999883
0.620000000000001,0.0059999999999999915
0.6210000000000004,0.0024999999999999883
0.6219999999999999,0.001999999999999988
0.6230000000000011,0.0024999999999999883
0.6240000000000006,-0.0020000000000000018
0.625,-0.0015000000000000013
0.6260000000000012,-0.0020000000000000018
0.6270000000000007,-0.0030000000000000027
0.6280000000000001,-0.0040000000000000036
0.6290000000000013,-0.006500000000000006
0.6300000000000008,0.0049999999999999906
0.6310000000000002,0.012499999999999997
0.6320000000000014,0.00449999999999999
0.6330000000000009,0.001999999999999988
0.6340000000000003,0.00449999999999999
0.6349999999999998,0.006499999999999992
0.636000000000001,0.0
0.6370000000000005,-0.004500000000000004
0.6379999999999999,-0.0010000000000000009
0.6390000000000011,-0.0040000000000000036
0.6400000000000006,-0.0025000000000000022
0.641,-0.0025000000000000022
0.6420000000000012,0.0005000000000000004
0.6430000000000007,0.00449999999999999
0.6440000000000001,0.0034999999999999892
0.6450000000000014,0.0
0.6460000000000008,-0.0030000000000000027
0.6470000000000002,-0.0020000000000000018
0.6480000000000015,0.0
0.6490000000000009,0.0014999999999999875
0.6500000000000004,0.0024999999999999883
0.6509999999999998,0.002999999999999989
0.652000000000001,0.007499999999999993
0.6530000000000005,0.00399999999999999
0.6539999999999999,-0.005500000000000005
0.6550000000000011,-0.01100000000000001
0.6560000000000006,-0.0165
0.657,-0.013500000000000012
0.6580000000000013,-0.01200000000000001
0.6590000000000007,-0.0050000000000000044
0.6600000000000001,-0.0050000000000000044
0.6610000000000014,-0.013000000000000012
0.6620000000000008,-0.007000000000000006
0.6630000000000003,0.0
0.6639999999999997,0.007999999999999993
0.6650000000000009,0.011999999999999997
0.6660000000000004,0.0059999999999999915
0.6669999999999998,0.0
0.668000000000001,-0.0015000000000000013
0.6690000000000005,0.0005000000000000004
0.6699999999999999,-0.003500000000000003
0.6710000000000012,-0.009000000000000008
0.6720000000000006,0.00449999999999999
0.673,0.00399999999999999
0.6740000000000013,-0.006000000000000005
0.6750000000000007,-0.007500000000000007
0.6760000000000002,-0.01100000000000001
0.6770000000000014,-0.013000000000000012
0.6780000000000008,-0.018500000000000003
0.6790000000000003,-0.01200000000000001
0.6799999999999997,-0.01100000000000001
0.6810000000000009,-0.014000000000000012
0.6820000000000004,-0.010000000000000009
0.6829999999999998,-0.009000000000000008
0.684000000000001,-0.006000000000000005
0.6850000000000005,-0.004500000000000004
0.6859999999999999,-0.0040000000000000036
0.6870000000000012,-0.003500000000000003
0.6880000000000006,0.005499999999999991
0.6890000000000001,0.0049999999999999906
0.6900000000000013,-0.0040000000000000036
0.6910000000000007,-0.0025000000000000022
0.6920000000000002,-0.004500000000000004
0.6930000000000014,-0.008500000000000008
0.6940000000000008,-0.008000000000000007
0.6950000000000003,-0.01150000000000001
0.6959999999999997,-0.0175
0.697000000000001,-0.020000000000000004
0.6980000000000004,-0.022000000000000006
0.6989999999999998,-0.0175
0.7000000000000011,-0.01050000000000001
0.7010000000000005,-0.01200000000000001
0.702,-0.01200000000000001
0.7030000000000012,-0.01050000000000001
0.7040000000000006,-0.016
0.7050000000000001,-0.023500000000000007
0.7060000000000013,-0.0155
0.7070000000000007,-0.008000000000000007
0.7080000000000002,-0.01050000000000001
0.7090000000000014,-0.007500000000000007
0.7100000000000009,-0.01100000000000001
0.7110000000000003,-0.01100000000000001
0.7119999999999997,-0.01200000000000001
0.713000000000001,-0.019500000000000003
0.7140000000000004,-0.023500000000000007
0.7149999999999999,-0.022000000000000006
0.7160000000000011,-0.018500000000000003
0.7170000000000005,-0.019000000000000003
0.718,-0.023500000000000007
0.7190000000000012,-0.026500000000000003
0.7200000000000006,-0.021500000000000005
0.7210000000000001,-0.021500000000000005
0.7220000000000013,-0.023000000000000007
0.7230000000000008,-0.023000000000000007
0.7240000000000002,-0.02550000000000001
0.7250000000000014,-0.023500000000000007
0.7260000000000009,-0.018000000000000002
0.7270000000000003,-0.013000000000000012
0.7279999999999998,-0.008000000000000007
0.729000000000001,-0.014499999999999999
0.7300000000000004,-0.0175
0.7309999999999999,-0.009000000000000008
0.7320000000000011,-0.0050000000000000044
0.7330000000000005,-0.004500000000000004
0.734,-0.009000000000000008
0.7350000000000012,-0.017
0.7360000000000007,-0.018000000000000002
0.7370000000000001,-0.017
0.7380000000000013,-0.014499999999999999
0.7390000000000008,-0.014499999999999999
0.7400000000000002,-0.016
0.7410000000000014,-0.0175
0.7420000000000009,-0.021500000000000005
0.7430000000000003,-0.023000000000000007
0.7439999999999998,-0.017
0.745000000000001,-0.019500000000000003
0.7460000000000004,-0.019500000000000003
0.7469999999999999,-0.013000000000000012
0.7480000000000011,-0.018500000000000003
0.7490000000000006,-0.022000000000000006
0.75,-0.022000000000000006
0.7510000000000012,-0.022000000000000006
0.7520000000000007,-0.0175
0.7530000000000001,-0.015
0.7540000000000013,-0.021000000000000005
0.7550000000000008,-0.019500000000000003
0.7560000000000002,-0.021500000000000005
0.7570000000000014,-0.028500000000000004
0.7580000000000009,-0.03200000000000001
0.7590000000000003,-0.026000000000000002
0.7599999999999998,-0.022000000000000006
0.761000000000001,-0.024000000000000007
0.7620000000000005,-0.0175
0.7629999999999999,-0.024000000000000007
0.7640000000000011,-0.020500000000000004
0.7650000000000006,-0.0155
0.766,-0.022500000000000006
0.7670000000000012,-0.022500000000000006
0.7680000000000007,-0.020500000000000004
0.7690000000000001,-0.016
0.7700000000000014,-0.01200000000000001
0.7710000000000008,-0.005500000000000005
0.7720000000000002,-0.017
0.7730000000000015,-0.026000000000000002
0.7740000000000009,-0.018000000000000002
0.7750000000000004,-0.017
0.7759999999999998,-0.0175
0.777000000000001,-0.020500000000000004
0.7780000000000005,-0.022000000000000006
0.7789999999999999,-0.018500000000000003
0.7800000000000011,-0.009500000000000008
0.7810000000000006,-0.0165
0.782,-0.018500000000000003
0.7830000000000013,-0.021000000000000005
0.7840000000000007,-0.022500000000000006
0.7850000000000001,-0.010000000000000009
0.7860000000000014,-0.019000000000000003
0.7870000000000008,-0.022000000000000006
0.7880000000000003,-0.018500000000000003
0.7889999999999997,-0.0165
0.7900000000000009,-0.019500000000000003
0.7910000000000004,-0.023500000000000007
0.7919999999999998,-0.0155
0.793000000000001,-0.01150000000000001
0.7940000000000005,-0.014499999999999999
0.7949999999999999,-0.0175
0.7960000000000012,-0.021000000000000005
0.7970000000000006,-0.027500000000000004
0.798,-0.027500000000000004
0.7990000000000013,-0.027500000000000004
