timestamp,value
0.0,0.0
0.0009999999999976694,-0.0005000000000000004
0.0019999999999988916,0.004499999999999997
0.0030000000000001137,0.005999999999999998
0.003999999999997783,0.005499999999999998
0.004999999999999005,0.003499999999999996
0.006000000000000227,0.006999999999999999
0.006999999999997897,0.0075
0.007999999999999119,0.0024999999999999953
0.008999999999996788,0.0075
0.00999999999999801,0.011999999999999997
0.010999999999999233,0.010000000000000002
0.011999999999996902,0.013499999999999998
0.012999999999998124,0.010999999999999996
0.013999999999999346,0.0010000000000000009
0.014999999999997016,-0.0020000000000000018
0.015999999999998238,0.0015000000000000013
0.01699999999999946,0.0024999999999999953
0.01799999999999713,0.0029999999999999957
0.01899999999999835,0.005499999999999998
0.019999999999999574,0.0005000000000000004
0.020999999999997243,-0.0030000000000000027
0.021999999999998465,-0.006499999999999999
0.022999999999999687,-0.009000000000000001
0.023999999999997357,-0.009000000000000001
0.02499999999999858,-0.006499999999999999
0.0259999999999998,0.003999999999999997
0.02699999999999747,0.0020000000000000018
0.027999999999998693,0.0029999999999999957
0.028999999999999915,0.009500000000000001
0.029999999999997584,0.011499999999999996
0.030999999999998806,0.013499999999999998
0.03200000000000003,0.009500000000000001
0.0329999999999977,0.011499999999999996
0.03399999999999892,0.009000000000000001
0.03500000000000014,0.005999999999999998
0.03599999999999781,0.003499999999999996
0.036999999999999034,0.005999999999999998
0.038000000000000256,0.0075
0.038999999999997925,-0.0020000000000000018
0.03999999999999915,0.0005000000000000004
0.04099999999999682,0.0029999999999999957
0.04199999999999804,0.0020000000000000018
0.04299999999999926,0.0020000000000000018
0.04399999999999693,-0.0040000000000000036
0.04499999999999815,0.0
0.045999999999999375,-0.0010000000000000009
0.046999999999997044,0.0005000000000000004
0.047999999999998266,0.006499999999999999
0.04899999999999949,0.0049999999999999975
0.04999999999999716,0.011499999999999996
0.05099999999999838,0.0020000000000000018
0.0519999999999996,-0.005500000000000005
0.05299999999999727,0.0010000000000000009
0.053999999999998494,0.0029999999999999957
0.054999999999999716,0.003999999999999997
0.055999999999997385,-0.0015000000000000013
0.05699999999999861,0.0005000000000000004
0.05799999999999983,0.0005000000000000004
0.0589999999999975,-0.006499999999999999
0.05999999999999872,-0.0015000000000000013
0.06099999999999994,0.003999999999999997
0.06199999999999761,0.003499999999999996
0.06299999999999883,0.0024999999999999953
0.06400000000000006,0.0029999999999999957
0.06499999999999773,-0.0040000000000000036
0.06599999999999895,-0.005500000000000005
0.06700000000000017,0.0010000000000000009
0.06799999999999784,0.0015000000000000013
0.06899999999999906,0.0
0.06999999999999673,0.005499999999999998
0.07099999999999795,0.0085
0.07199999999999918,0.0024999999999999953
0.07299999999999685,0.004499999999999997
0.07399999999999807,0.0010000000000000009
0.07499999999999929,-0.003500000000000003
0.07599999999999696,-0.003500000000000003
0.07699999999999818,0.006999999999999999
0.0779999999999994,0.010000000000000002
0.07899999999999707,-0.0015000000000000013
0.0799999999999983,0.006499999999999999
0.08099999999999952,0.008
0.08199999999999719,0.0049999999999999975
0.08299999999999841,0.006999999999999999
0.08399999999999963,0.003999999999999997
0.0849999999999973,0.003999999999999997
0.08599999999999852,0.010000000000000002
0.08699999999999974,0.011999999999999997
0.08799999999999741,0.010999999999999996
0.08899999999999864,0.010999999999999996
0.08999999999999986,0.009500000000000001
0.09099999999999753,0.012999999999999998
0.09199999999999875,0.013999999999999999
0.09299999999999997,0.020000000000000004
0.09399999999999764,0.025999999999999995
0.09499999999999886,0.022499999999999992
0.09600000000000009,0.020000000000000004
0.09699999999999775,0.018500000000000003
0.09799999999999898,0.021500000000000005
0.0990000000000002,0.019500000000000003
0.09999999999999787,0.020000000000000004
0.10099999999999909,0.027999999999999997
0.10199999999999676,0.03
0.10299999999999798,0.027999999999999997
0.1039999999999992,0.031
0.10499999999999687,0.028999999999999998
0.1059999999999981,0.03
0.10699999999999932,0.036500000000000005
0.10799999999999699,0.03799999999999999
0.10899999999999821,0.047
0.10999999999999943,0.048
0.1109999999999971,0.0445
0.11199999999999832,0.044
0.11299999999999955,0.040499999999999994
0.11399999999999721,0.037000000000000005
0.11499999999999844,0.036000000000000004
0.11599999999999966,0.040499999999999994
0.11699999999999733,0.03899999999999999
0.11799999999999855,0.036500000000000005
0.11899999999999977,0.03899999999999999
0.11999999999999744,0.041499999999999995
0.12099999999999866,0.049
0.12199999999999989,0.0475
0.12299999999999756,0.05
0.12399999999999878,0.061
0.125,0.057999999999999996
0.12599999999999767,0.06
0.1269999999999989,0.0615
0.1280000000000001,0.0645
0.12899999999999778,0.073
0.129999999999999,0.076
0.13100000000000023,0.081
0.1319999999999979,0.078
0.13299999999999912,0.0755
0.1339999999999968,0.077
0.134999999999998,0.0715
0.13599999999999923,0.0685
0.1369999999999969,0.0685
0.13799999999999812,0.06999999999999999
0.13899999999999935,0.06949999999999999
0.13999999999999702,0.0635
0.14099999999999824,0.0665
0.14199999999999946,0.0725
0.14299999999999713,0.078
0.14399999999999835,0.075
0.14499999999999957,0.0745
0.14599999999999724,0.0825
0.14699999999999847,0.08800000000000001
0.1479999999999997,0.0845
0.14899999999999736,0.08
0.14999999999999858,0.08700000000000001
0.1509999999999998,0.078
0.15199999999999747,0.0725
0.1529999999999987,0.0635
0.15399999999999991,0.0595
0.15499999999999758,0.063
0.1559999999999988,0.051000000000000004
0.15700000000000003,0.05
0.1579999999999977,0.053000000000000005
0.15899999999999892,0.0475
0.16000000000000014,0.03899999999999999
0.1609999999999978,0.035500000000000004
0.16199999999999903,0.035500000000000004
0.16300000000000026,0.0335
0.16399999999999793,0.026999999999999996
0.16499999999999915,0.0315
0.16599999999999682,0.03799999999999999
0.16699999999999804,0.024999999999999994
0.16799999999999926,0.017
0.16899999999999693,0.013499999999999998
0.16999999999999815,0.018500000000000003
0.17099999999999937,0.022499999999999992
0.17199999999999704,0.020500000000000004
0.17299999999999827,0.021000000000000005
0.1739999999999995,0.0165
0.17499999999999716,0.012499999999999997
0.17599999999999838,0.010499999999999995
0.1769999999999996,0.009500000000000001
0.17799999999999727,0.010000000000000002
0.1789999999999985,0.0085
0.17999999999999972,0.0
0.18099999999999739,-0.0025000000000000022
0.1819999999999986,-0.005999999999999998
0.18299999999999983,-0.016
0.1839999999999975,-0.015
0.18499999999999872,-0.010000000000000002
0.18599999999999994,-0.009000000000000001
0.1869999999999976,-0.013499999999999998
0.18799999999999883,-0.014499999999999999
0.18900000000000006,-0.013000000000000005
0.18999999999999773,-0.008
0.19099999999999895,-0.0005000000000000004
0.19200000000000017,-0.009000000000000001
0.19299999999999784,-0.0155
0.19399999999999906,-0.0165
0.19499999999999673,-0.022000000000000002
0.19599999999999795,-0.029
0.19699999999999918,-0.033
0.19799999999999685,-0.0245
0.19899999999999807,-0.019000000000000003
0.1999999999999993,-0.022000000000000002
0.20099999999999696,-0.0285
0.20199999999999818,-0.027000000000000003
0.2029999999999994,-0.022000000000000002
0.20399999999999707,-0.023000000000000003
0.2049999999999983,-0.019000000000000003
0.20599999999999952,-0.0175
0.2069999999999972,-0.017
0.2079999999999984,-0.019000000000000003
0.20899999999999963,-0.027000000000000003
0.2099999999999973,-0.028
0.21099999999999852,-0.0315
0.21199999999999974,-0.027000000000000003
0.2129999999999974,-0.029
0.21399999999999864,-0.0395
0.21499999999999986,-0.0415
0.21599999999999753,-0.0425
0.21699999999999875,-0.043000000000000003
0.21799999999999997,-0.049
0.21899999999999764,-0.052500000000000005
0.21999999999999886,-0.0565
0.22100000000000009,-0.0615
0.22199999999999775,-0.0555
0.22299999999999898,-0.049
0.2240000000000002,-0.05
0.22499999999999787,-0.0495
0.2259999999999991,-0.0395
0.22699999999999676,-0.027000000000000003
0.22799999999999798,-0.0205
0.2289999999999992,-0.012500000000000004
0.22999999999999687,0.0024999999999999953
0.2309999999999981,0.020500000000000004
0.23199999999999932,0.028499999999999998
0.232999999999997,0.03849999999999999
0.2339999999999982,0.0505
0.23499999999999943,0.0605
0.2359999999999971,0.0705
0.23699999999999832,0.0815
0.23799999999999955,0.1115
0.23899999999999721,0.14250000000000002
0.23999999999999844,0.16849999999999998
0.24099999999999966,0.1965
0.24199999999999733,0.22650000000000003
0.24299999999999855,0.257
0.24399999999999977,0.29050000000000004
0.24499999999999744,0.34400000000000003
0.24599999999999866,0.41600000000000004
0.2469999999999999,0.46950000000000003
0.24799999999999756,0.508
0.24899999999999878,0.549
0.25,0.5995
0.25099999999999767,0.638
0.2519999999999989,0.622
0.2530000000000001,0.624
0.2539999999999978,0.628
0.254999999999999,0.603
0.2560000000000002,0.5695
0.2569999999999979,0.516
0.2579999999999991,0.4615
0.2589999999999968,0.41550000000000004
0.259999999999998,0.3795
0.26099999999999923,0.3405
0.2619999999999969,0.3105
0.2629999999999981,0.28550000000000003
0.26399999999999935,0.2535
0.264999999999997,0.22900000000000004
0.26599999999999824,0.21400000000000002
0.26699999999999946,0.191
0.26799999999999713,0.16649999999999998
0.26899999999999835,0.1385
0.2699999999999996,0.1105
0.27099999999999724,0.084
0.27199999999999847,0.0625
0.2729999999999997,0.0315
0.27399999999999736,-0.0025000000000000022
0.2749999999999986,-0.026000000000000002
0.2759999999999998,-0.0695
0.27699999999999747,-0.094
0.2779999999999987,-0.0915
0.2789999999999999,-0.0945
0.2799999999999976,-0.088
0.2809999999999988,-0.0965
0.28200000000000003,-0.115
0.2829999999999977,-0.1155
0.2839999999999989,-0.10400000000000001
0.28500000000000014,-0.09
0.2859999999999978,-0.086
0.28699999999999903,-0.095
0.28800000000000026,-0.10200000000000001
0.2889999999999979,-0.088
0.28999999999999915,-0.081
0.2909999999999968,-0.0815
0.29199999999999804,-0.07
0.29299999999999926,-0.0665
0.29399999999999693,-0.069
0.29499999999999815,-0.063
0.2959999999999994,-0.05
0.29699999999999704,-0.0475
0.29799999999999827,-0.043500000000000004
0.2989999999999995,-0.038
0.29999999999999716,-0.044000000000000004
0.3009999999999984,-0.043500000000000004
0.3019999999999996,-0.043500000000000004
0.30299999999999727,-0.039
0.3039999999999985,-0.030000000000000002
0.3049999999999997,-0.0235
0.3059999999999974,-0.021500000000000002
0.3069999999999986,-0.021500000000000002
0.30799999999999983,-0.026500000000000003
0.3089999999999975,-0.0285
0.3099999999999987,-0.0205
0.31099999999999994,-0.015
0.3119999999999976,-0.009000000000000001
0.31299999999999883,-0.010000000000000002
0.31400000000000006,-0.015
0.3149999999999977,-0.019000000000000003
0.31599999999999895,-0.019000000000000003
0.31700000000000017,-0.019000000000000003
0.31799999999999784,-0.0165
0.31899999999999906,-0.018000000000000002
0.31999999999999673,-0.025
0.32099999999999795,-0.026000000000000002
0.3219999999999992,-0.0275
0.32299999999999685,-0.019000000000000003
0.32399999999999807,-0.016
0.3249999999999993,-0.02
0.32599999999999696,-0.016
0.3269999999999982,-0.015
0.3279999999999994,-0.019000000000000003
0.3289999999999971,-0.0165
0.3299999999999983,-0.010000000000000002
0.3309999999999995,-0.011500000000000003
0.3319999999999972,-0.0205
0.3329999999999984,-0.022000000000000002
0.33399999999999963,-0.021
0.3349999999999973,-0.026000000000000002
0.3359999999999985,-0.027000000000000003
0.33699999999999974,-0.032
0.3379999999999974,-0.023000000000000003
0.33899999999999864,-0.0155
0.33999999999999986,-0.019000000000000003
0.3409999999999975,-0.018500000000000003
0.34199999999999875,-0.0275
0.34299999999999997,-0.023000000000000003
0.34399999999999764,-0.021
0.34499999999999886,-0.023000000000000003
0.3460000000000001,-0.0155
0.34699999999999775,-0.021
0.347999999999999,-0.026000000000000002
0.3490000000000002,-0.023000000000000003
0.34999999999999787,-0.023000000000000003
0.3509999999999991,-0.0235
0.35199999999999676,-0.022000000000000002
0.352999999999998,-0.027000000000000003
0.3539999999999992,-0.032
0.3549999999999969,-0.029
0.3559999999999981,-0.025
0.3569999999999993,-0.025500000000000002
0.357999999999997,-0.018000000000000002
0.3589999999999982,-0.013000000000000005
0.35999999999999943,-0.0165
0.3609999999999971,-0.025
0.3619999999999983,-0.031
0.36299999999999955,-0.022500000000000003
0.3639999999999972,-0.0195
0.36499999999999844,-0.022000000000000002
0.36599999999999966,-0.022500000000000003
0.36699999999999733,-0.0205
0.36799999999999855,-0.022000000000000002
0.3689999999999998,-0.015
0.36999999999999744,-0.006999999999999999
0.37099999999999866,-0.017
0.3719999999999999,-0.0195
0.37299999999999756,-0.015
0.3739999999999988,-0.021
0.375,-0.026500000000000003
0.37599999999999767,-0.026000000000000002
0.3769999999999989,-0.026500000000000003
0.3780000000000001,-0.029500000000000002
0.3789999999999978,-0.028
0.379999999999999,-0.026000000000000002
0.3810000000000002,-0.0335
0.3819999999999979,-0.0325
0.3829999999999991,-0.0245
0.3839999999999968,-0.02
0.384999999999998,-0.02
0.38599999999999923,-0.0245
0.3869999999999969,-0.013499999999999998
0.3879999999999981,-0.009500000000000001
0.38899999999999935,-0.018500000000000003
0.389999999999997,-0.014499999999999999
0.39099999999999824,-0.0050000000000000044
0.39199999999999946,-0.008
0.39299999999999713,-0.015
0.39399999999999835,-0.013999999999999999
0.3949999999999996,-0.0165
0.39599999999999724,-0.018000000000000002
0.39699999999999847,-0.015
0.3979999999999997,-0.018500000000000003
0.39899999999999736,-0.018500000000000003
0.3999999999999986,-0.0205
0.4009999999999998,-0.0235
0.40199999999999747,-0.021500000000000002
0.4029999999999987,-0.0235
0.4039999999999999,-0.0235
0.4049999999999976,-0.027000000000000003
0.4059999999999988,-0.024
0.40700000000000003,-0.022000000000000002
0.4079999999999977,-0.0175
0.4089999999999989,-0.018500000000000003
0.41000000000000014,-0.0205
0.4109999999999978,-0.010000000000000002
0.41199999999999903,-0.012000000000000004
0.41300000000000026,-0.011000000000000003
0.4139999999999979,-0.0085
0.41499999999999915,-0.005500000000000005
0.4159999999999968,-0.0020000000000000018
0.41699999999999804,-0.0075
0.41799999999999926,-0.012500000000000004
0.41899999999999693,-0.010500000000000002
0.41999999999999815,-0.0085
0.4209999999999994,-0.016
0.42199999999999704,-0.013999999999999999
0.42299999999999827,-0.0050000000000000044
0.4239999999999995,-0.010000000000000002
0.42499999999999716,-0.009000000000000001
0.4259999999999984,-0.006999999999999999
0.4269999999999996,-0.010500000000000002
0.42799999999999727,-0.0085
0.4289999999999985,-0.003500000000000003
0.4299999999999997,0.0015000000000000013
0.4309999999999974,0.003999999999999997
0.4319999999999986,0.009000000000000001
0.43299999999999983,0.010000000000000002
0.4339999999999975,0.005499999999999998
0.4349999999999987,0.0049999999999999975
0.43599999999999994,0.0085
0.4369999999999976,-0.0005000000000000004
0.43799999999999883,-0.0030000000000000027
0.43900000000000006,0.003499999999999996
0.4399999999999977,0.003999999999999997
0.44099999999999895,0.006499999999999999
0.44200000000000017,0.005999999999999998
0.44299999999999784,0.015
0.44399999999999906,0.018500000000000003
0.4450000000000003,0.021000000000000005
0.44599999999999795,0.025499999999999995
0.4469999999999992,0.020000000000000004
0.44799999999999685,0.018500000000000003
0.44899999999999807,0.020000000000000004
0.4499999999999993,0.023499999999999993
0.45099999999999696,0.025999999999999995
0.4519999999999982,0.023499999999999993
0.4529999999999994,0.026499999999999996
0.4539999999999971,0.026999999999999996
0.4549999999999983,0.025499999999999995
0.4559999999999995,0.023999999999999994
0.4569999999999972,0.024999999999999994
0.4579999999999984,0.028499999999999998
0.45899999999999963,0.0305
0.4599999999999973,0.0335
0.4609999999999985,0.028999999999999998
0.46199999999999974,0.0305
0.4629999999999974,0.0345
0.46399999999999864,0.039999999999999994
0.46499999999999986,0.048
0.4659999999999975,0.049
0.46699999999999875,0.051000000000000004
0.46799999999999997,0.051500000000000004
0.46899999999999764,0.05449999999999999
0.46999999999999886,0.059
0.4710000000000001,0.0685
0.47199999999999775,0.065
0.472999999999999,0.061
0.4740000000000002,0.074
0.47499999999999787,0.071
0.4759999999999991,0.071
0.47699999999999676,0.076
0.477999999999998,0.071
0.4789999999999992,0.06949999999999999
0.4799999999999969,0.077
0.4809999999999981,0.0785
0.4819999999999993,0.073
0.482999999999997,0.076
0.4839999999999982,0.0815
0.48499999999999943,0.08600000000000001
0.4859999999999971,0.0805
0.4869999999999983,0.0785
0.48799999999999955,0.08600000000000001
0.4889999999999972,0.08850000000000001
0.48999999999999844,0.09000000000000001
0.49099999999999966,0.08900000000000001
0.49199999999999733,0.09649999999999999
0.49299999999999855,0.107
0.4939999999999998,0.105
0.49499999999999744,0.10049999999999999
0.49599999999999866,0.09799999999999999
0.4969999999999999,0.09349999999999999
0.49799999999999756,0.09949999999999999
0.4989999999999988,0.102
0.5,0.09799999999999999
0.5009999999999977,0.103
0.5019999999999989,0.102
0.5030000000000001,0.1035
0.5039999999999978,0.1105
0.504999999999999,0.115
0.5060000000000002,0.1125
0.5069999999999979,0.114
0.5079999999999991,0.11800000000000001
0.5089999999999968,0.116
0.509999999999998,0.1095
0.5109999999999992,0.1125
0.5119999999999969,0.12349999999999998
0.5129999999999981,0.127
0.5139999999999993,0.12100000000000001
0.514999999999997,0.111
0.5159999999999982,0.116
0.5169999999999995,0.11750000000000001
0.5179999999999971,0.12250000000000001
0.5189999999999984,0.1255
0.5199999999999996,0.11750000000000001
0.5209999999999972,0.11800000000000001
0.5219999999999985,0.12050000000000001
0.5229999999999997,0.12150000000000001
0.5239999999999974,0.11800000000000001
0.5249999999999986,0.12200000000000001
0.5259999999999998,0.12100000000000001
0.5269999999999975,0.11900000000000001
0.5279999999999987,0.114
0.5289999999999999,0.1095
0.5299999999999976,0.11850000000000001
0.5309999999999988,0.117
0.532,0.112
0.5329999999999977,0.116
0.5339999999999989,0.106
0.5350000000000001,0.09999999999999999
0.5359999999999978,0.1045
0.536999999999999,0.09499999999999999
0.5380000000000003,0.08850000000000001
0.5389999999999979,0.09000000000000001
0.5399999999999991,0.09100000000000001
0.5409999999999968,0.08850000000000001
0.541999999999998,0.08800000000000001
0.5429999999999993,0.08600000000000001
0.5439999999999969,0.0825
0.5449999999999982,0.081
0.5459999999999994,0.077
0.546999999999997,0.08
0.5479999999999983,0.083
0.5489999999999995,0.0745
0.5499999999999972,0.068
0.5509999999999984,0.074
0.5519999999999996,0.0655
0.5529999999999973,0.0445
0.5539999999999985,0.0435
0.5549999999999997,0.0445
0.5559999999999974,0.03749999999999999
0.5569999999999986,0.03899999999999999
0.5579999999999998,0.037000000000000005
0.5589999999999975,0.0345
0.5599999999999987,0.03799999999999999
0.5609999999999999,0.03749999999999999
0.5619999999999976,0.037000000000000005
0.5629999999999988,0.03899999999999999
0.5640000000000001,0.036500000000000005
0.5649999999999977,0.0315
0.565999999999999,0.032
0.5670000000000002,0.028499999999999998
0.5679999999999978,0.023499999999999993
0.5689999999999991,0.022499999999999992
0.5700000000000003,0.022499999999999992
0.570999999999998,0.019500000000000003
0.5719999999999992,0.024499999999999994
0.5729999999999968,0.03
0.5739999999999981,0.017
0.5749999999999993,0.009000000000000001
0.575999999999997,0.010999999999999996
0.5769999999999982,0.010499999999999995
0.5779999999999994,0.006499999999999999
0.5789999999999971,0.0049999999999999975
0.5799999999999983,0.0029999999999999957
0.5809999999999995,0.0029999999999999957
0.5819999999999972,0.003499999999999996
0.5829999999999984,0.0010000000000000009
0.5839999999999996,0.0
0.5849999999999973,0.0015000000000000013
0.5859999999999985,0.004499999999999997
0.5869999999999997,0.0020000000000000018
0.5879999999999974,0.0024999999999999953
0.5889999999999986,-0.005999999999999998
0.5899999999999999,-0.009000000000000001
0.5909999999999975,-0.0025000000000000022
0.5919999999999987,-0.0020000000000000018
0.593,0.0
0.5939999999999976,-0.0025000000000000022
0.5949999999999989,-0.0020000000000000018
0.5960000000000001,-0.0075
0.5969999999999978,-0.005999999999999998
0.597999999999999,0.0005000000000000004
0.5990000000000002,-0.0050000000000000044
0.5999999999999979,-0.005500000000000005
0.6009999999999991,-0.009500000000000001
0.6019999999999968,-0.011500000000000003
0.602999999999998,-0.0075
0.6039999999999992,-0.0010000000000000009
0.6049999999999969,0.0020000000000000018
0.6059999999999981,0.008
0.6069999999999993,0.0024999999999999953
0.607999999999997,-0.0075
0.6089999999999982,0.0015000000000000013
0.6099999999999994,-0.0015000000000000013
0.6109999999999971,0.0
0.6119999999999983,0.0005000000000000004
0.6129999999999995,-0.0050000000000000044
0.6139999999999972,-0.004500000000000004
0.6149999999999984,-0.011000000000000003
0.6159999999999997,-0.0155
0.6169999999999973,-0.019000000000000003
0.6179999999999986,-0.016
0.6189999999999998,-0.011000000000000003
0.6199999999999974,-0.015
0.6209999999999987,-0.010000000000000002
0.6219999999999999,-0.006999999999999999
0.6229999999999976,-0.017
0.6239999999999988,-0.013499999999999998
0.625,-0.0010000000000000009
0.6259999999999977,-0.0025000000000000022
0.6269999999999989,-0.003500000000000003
0.6280000000000001,-0.0030000000000000027
0.6289999999999978,-0.004500000000000004
0.629999999999999,0.004499999999999997
0.6310000000000002,0.0010000000000000009
0.6319999999999979,-0.004500000000000004
0.6329999999999991,-0.0040000000000000036
0.6339999999999968,-0.005999999999999998
0.634999999999998,-0.005999999999999998
0.6359999999999992,-0.0020000000000000018
0.6369999999999969,0.003499999999999996
0.6379999999999981,-0.0020000000000000018
0.6389999999999993,-0.004500000000000004
0.639999999999997,-0.0085
0.6409999999999982,-0.010500000000000002
0.6419999999999995,0.0
0.6429999999999971,-0.0005000000000000004
0.6439999999999984,0.0049999999999999975
0.6449999999999996,0.0029999999999999957
0.6459999999999972,-0.0075
0.6469999999999985,0.0010000000000000009
0.6479999999999997,0.0005000000000000004
0.6489999999999974,-0.004500000000000004
0.6499999999999986,-0.0025000000000000022
0.6509999999999998,-0.0015000000000000013
0.6519999999999975,0.0015000000000000013
0.6529999999999987,0.0
0.6539999999999999,0.0015000000000000013
0.6549999999999976,0.0010000000000000009
0.6559999999999988,0.0015000000000000013
0.657,0.0024999999999999953
0.6579999999999977,-0.0030000000000000027
0.6589999999999989,0.0005000000000000004
0.6600000000000001,-0.003500000000000003
0.6609999999999978,-0.012000000000000004
0.661999999999999,-0.004500000000000004
0.6630000000000003,0.0005000000000000004
0.6639999999999979,0.003499999999999996
0.6649999999999991,0.006499999999999999
0.6659999999999968,0.0020000000000000018
0.666999999999998,-0.0020000000000000018
0.6679999999999993,-0.0005000000000000004
0.6689999999999969,0.003499999999999996
0.6699999999999982,-0.0030000000000000027
0.6709999999999994,-0.0030000000000000027
0.671999999999997,-0.0050000000000000044
0.6729999999999983,-0.0165
0.6739999999999995,-0.010500000000000002
0.6749999999999972,-0.0015000000000000013
0.6759999999999984,-0.0015000000000000013
0.6769999999999996,-0.0025000000000000022
0.6779999999999973,-0.0005000000000000004
0.6789999999999985,-0.004500000000000004
0.6799999999999997,-0.006999999999999999
0.6809999999999974,-0.0020000000000000018
0.6819999999999986,-0.0005000000000000004
0.6829999999999998,0.003999999999999997
0.6839999999999975,0.006499999999999999
0.6849999999999987,0.011499999999999996
0.6859999999999999,0.0049999999999999975
0.6869999999999976,-0.0030000000000000027
0.6879999999999988,0.005999999999999998
0.6890000000000001,0.005499999999999998
0.6899999999999977,0.003999999999999997
0.690999999999999,0.0020000000000000018
0.6920000000000002,0.0015000000000000013
0.6929999999999978,0.0
0.6939999999999991,-0.0020000000000000018
0.6950000000000003,-0.0020000000000000018
0.695999999999998,-0.003500000000000003
0.6969999999999992,-0.006499999999999999
0.6979999999999968,-0.009000000000000001
0.6989999999999981,-0.011500000000000003
0.6999999999999993,-0.013000000000000005
0.700999999999997,-0.009000000000000001
0.7019999999999982,-0.010000000000000002
0.7029999999999994,-0.006999999999999999
0.7039999999999971,-0.006999999999999999
0.7049999999999983,-0.006999999999999999
0.7059999999999995,0.004499999999999997
0.7069999999999972,0.003999999999999997
0.7079999999999984,-0.0075
0.7089999999999996,-0.005500000000000005
0.7099999999999973,0.0
0.7109999999999985,-0.0010000000000000009
0.7119999999999997,-0.0015000000000000013
0.7129999999999974,-0.0040000000000000036
0.7139999999999986,-0.0010000000000000009
0.7149999999999999,-0.005999999999999998
0.7159999999999975,-0.005999999999999998
0.7169999999999987,-0.0085
0.718,-0.019000000000000003
0.7189999999999976,-0.0085
0.7199999999999989,-0.0075
0.7210000000000001,-0.0085
0.7219999999999978,-0.006499999999999999
0.722999999999999,-0.009000000000000001
0.7240000000000002,-0.006499999999999999
0.7249999999999979,-0.0030000000000000027
0.7259999999999991,-0.0020000000000000018
0.7269999999999968,-0.0050000000000000044
0.727999999999998,-0.008
0.7289999999999992,-0.005500000000000005
0.7299999999999969,0.0
0.7309999999999981,-0.005500000000000005
0.7319999999999993,-0.0075
0.732999999999997,-0.005500000000000005
0.7339999999999982,-0.011500000000000003
0.7349999999999994,-0.0155
0.7359999999999971,-0.016
0.7369999999999983,-0.006499999999999999
0.7379999999999995,-0.005500000000000005
0.7389999999999972,-0.014499999999999999
0.7399999999999984,-0.010500000000000002
0.7409999999999997,-0.009500000000000001
0.7419999999999973,-0.010500000000000002
0.7429999999999986,-0.011000000000000003
0.7439999999999998,-0.008
0.7449999999999974,-0.004500000000000004
0.7459999999999987,-0.009000000000000001
0.7469999999999999,-0.0075
0.7479999999999976,-0.0025000000000000022
0.7489999999999988,-0.0020000000000000018
0.75,-0.003500000000000003
0.7509999999999977,-0.003500000000000003
0.7519999999999989,0.0
0.7530000000000001,0.0005000000000000004
0.7539999999999978,0.0005000000000000004
0.754999999999999,0.0015000000000000013
0.7560000000000002,-0.008
0.7569999999999979,-0.008
0.7579999999999991,-0.0010000000000000009
0.7589999999999968,-0.0050000000000000044
0.759999999999998,-0.003500000000000003
0.7609999999999992,-0.0050000000000000044
0.7619999999999969,-0.010000000000000002
0.7629999999999981,-0.010000000000000002
0.7639999999999993,-0.009500000000000001
0.764999999999997,-0.0020000000000000018
0.7659999999999982,0.003499999999999996
0.7669999999999995,0.0029999999999999957
0.7679999999999971,0.003499999999999996
0.7689999999999984,-0.0010000000000000009
0.7699999999999996,0.0
0.7709999999999972,0.0005000000000000004
0.7719999999999985,-0.0010000000000000009
0.7729999999999997,0.004499999999999997
0.7739999999999974,-0.0010000000000000009
0.7749999999999986,-0.0040000000000000036
0.7759999999999998,-0.0010000000000000009
0.7769999999999975,0.003499999999999996
0.7779999999999987,0.005499999999999998
0.7789999999999999,0.0049999999999999975
0.7799999999999976,0.0049999999999999975
0.7809999999999988,0.005499999999999998
0.782,0.010000000000000002
0.7829999999999977,0.009000000000000001
0.7839999999999989,0.004499999999999997
0.7850000000000001,0.0020000000000000018
0.7859999999999978,0.003999999999999997
0.786999999999999,0.010499999999999995
0.7880000000000003,0.006999999999999999
0.7889999999999979,0.0024999999999999953
0.7899999999999991,0.0085
0.7909999999999968,0.011499999999999996
0.791999999999998,0.008
0.7929999999999993,0.0049999999999999975
0.7939999999999969,0.008
0.7949999999999982,0.006499999999999999
0.7959999999999994,0.0
0.796999999999997,-0.0010000000000000009
0.7979999999999983,0.0020000000000000018
0.7989999999999995,0.004499999999999997
