timestamp,value
0.0,0.0275
0.0009999999999998899,0.0305
0.0019999999999997797,0.03
0.0029999999999996696,0.031
0.0040000000000000036,0.0275
0.004999999999999893,0.0245
0.005999999999999783,0.0255
0.006999999999999673,0.027
0.008000000000000007,0.03
0.008999999999999897,0.0305
0.009999999999999787,0.032
0.010999999999999677,0.0335
0.01200000000000001,0.0315
0.0129999999999999,0.0295
0.01399999999999979,0.0275
0.01499999999999968,0.03
0.016000000000000014,0.0325
0.016999999999999904,0.027
0.017999999999999794,0.0285
0.018999999999999684,0.0335
0.020000000000000018,0.0305
0.020999999999999908,0.028
0.021999999999999797,0.0315
0.022999999999999687,0.0335
0.02400000000000002,0.029
0.02499999999999991,0.027
0.0259999999999998,0.0285
0.02699999999999969,0.0275
0.02799999999999958,0.0275
0.028999999999999915,0.0265
0.029999999999999805,0.0245
0.030999999999999694,0.028
0.031999999999999584,0.028
0.03299999999999992,0.0245
0.03399999999999981,0.0265
0.0349999999999997,0.027
0.03599999999999959,0.0245
0.03699999999999992,0.025
0.03799999999999981,0.021
0.0389999999999997,0.0235
0.03999999999999959,0.0325
0.040999999999999925,0.0345
0.041999999999999815,0.031
0.042999999999999705,0.0275
0.043999999999999595,0.027
0.04499999999999993,0.0265
0.04599999999999982,0.0285
0.04699999999999971,0.032
0.0479999999999996,0.031
0.04899999999999993,0.029
0.04999999999999982,0.03
0.05099999999999971,0.03
0.0519999999999996,0.03
0.052999999999999936,0.0315
0.053999999999999826,0.0305
0.054999999999999716,0.0325
0.055999999999999606,0.035
0.05699999999999994,0.036
0.05799999999999983,0.034
0.05899999999999972,0.031
0.05999999999999961,0.0325
0.06099999999999994,0.0365
0.06199999999999983,0.0365
0.06299999999999972,0.034
0.06399999999999961,0.0355
0.06499999999999995,0.0405
0.06599999999999984,0.045
0.06699999999999973,0.0425
0.06799999999999962,0.044
0.06899999999999995,0.0475
0.06999999999999984,0.0475
0.07099999999999973,0.047
0.07199999999999962,0.044
0.07299999999999995,0.044
0.07399999999999984,0.048
0.07499999999999973,0.0485
0.07599999999999962,0.0465
0.07699999999999996,0.049
0.07799999999999985,0.0555
0.07899999999999974,0.0585
0.07999999999999963,0.059
0.08099999999999996,0.0615
0.08199999999999985,0.064
0.08299999999999974,0.0625
0.08399999999999963,0.062
0.08499999999999996,0.063
0.08599999999999985,0.063
0.08699999999999974,0.0625
0.08799999999999963,0.069
0.08899999999999997,0.0735
0.08999999999999986,0.0695
0.09099999999999975,0.0695
0.09199999999999964,0.0675
0.09299999999999997,0.06
0.09399999999999986,0.06
0.09499999999999975,0.0685
0.09599999999999964,0.067
0.09699999999999998,0.07
0.09799999999999986,0.077
0.09899999999999975,0.0735
0.09999999999999964,0.072
0.10099999999999998,0.073
0.10199999999999987,0.076
0.10299999999999976,0.0775
0.10399999999999965,0.08
0.10499999999999998,0.0855
0.10599999999999987,0.088
0.10699999999999976,0.0835
0.10799999999999965,0.084
0.10899999999999999,0.086
0.10999999999999988,0.084
0.11099999999999977,0.0885
0.11199999999999966,0.087
0.11299999999999999,0.0845
0.11399999999999988,0.0885
0.11499999999999977,0.09
0.11599999999999966,0.09
0.11699999999999999,0.091
0.11799999999999988,0.092
0.11899999999999977,0.09
0.11999999999999966,0.0905
0.121,0.0885
0.12199999999999989,0.0915
0.12299999999999978,0.094
0.12399999999999967,0.0915
0.125,0.09
0.1259999999999999,0.088
0.12699999999999978,0.09
0.12799999999999967,0.091
0.129,0.0915
0.1299999999999999,0.094
0.13099999999999978,0.0935
0.13199999999999967,0.09
0.133,0.0865
0.1339999999999999,0.087
0.1349999999999998,0.0835
0.13599999999999968,0.082
0.137,0.084
0.1379999999999999,0.0795
0.1389999999999998,0.076
0.13999999999999968,0.078
0.14100000000000001,0.0815
0.1419999999999999,0.079
0.1429999999999998,0.082
0.14399999999999968,0.082
0.14500000000000002,0.0745
0.1459999999999999,0.075
0.1469999999999998,0.073
0.1479999999999997,0.0695
0.14900000000000002,0.062
0.1499999999999999,0.0505
0.1509999999999998,0.048
0.1519999999999997,0.052
0.15300000000000002,0.0525
0.15399999999999991,0.045
0.1549999999999998,0.0395
0.1559999999999997,0.04
0.15699999999999958,0.0425
0.15799999999999992,0.0465
0.1589999999999998,0.045
0.1599999999999997,0.0385
0.1609999999999996,0.033
0.16199999999999992,0.027
0.1629999999999998,0.0275
0.1639999999999997,0.029
0.1649999999999996,0.033
0.16599999999999993,0.0295
0.16699999999999982,0.027
0.1679999999999997,0.0315
0.1689999999999996,0.0295
0.16999999999999993,0.034
0.17099999999999982,0.034
0.1719999999999997,0.03
0.1729999999999996,0.033
0.17399999999999993,0.035
0.17499999999999982,0.0325
0.1759999999999997,0.0325
0.1769999999999996,0.034
0.17799999999999994,0.0335
0.17899999999999983,0.0335
0.17999999999999972,0.0345
0.1809999999999996,0.034
0.18199999999999994,0.0305
0.18299999999999983,0.029
0.18399999999999972,0.025
0.1849999999999996,0.0235
0.18599999999999994,0.026
0.18699999999999983,0.0265
0.18799999999999972,0.024
0.1889999999999996,0.0175
0.18999999999999995,0.0145
0.19099999999999984,0.0175
0.19199999999999973,0.0225
0.19299999999999962,0.0175
0.19399999999999995,0.017
0.19499999999999984,0.0195
0.19599999999999973,0.0215
0.19699999999999962,0.0285
0.19799999999999995,0.0265
0.19899999999999984,0.027
0.19999999999999973,0.0295
0.20099999999999962,0.0315
0.20199999999999996,0.0325
0.20299999999999985,0.03
0.20399999999999974,0.021
0.20499999999999963,0.0155
0.20599999999999996,0.0215
0.20699999999999985,0.025
0.20799999999999974,0.0275
0.20899999999999963,0.033
0.20999999999999996,0.035
0.21099999999999985,0.0385
0.21199999999999974,0.0475
0.21299999999999963,0.0515
0.21399999999999997,0.059
0.21499999999999986,0.0625
0.21599999999999975,0.063
0.21699999999999964,0.07
0.21799999999999997,0.068
0.21899999999999986,0.068
0.21999999999999975,0.0765
0.22099999999999964,0.0885
0.22199999999999998,0.0925
0.22299999999999986,0.0915
0.22399999999999975,0.0965
0.22499999999999964,0.0925
0.22599999999999998,0.0925
0.22699999999999987,0.1135
0.22799999999999976,0.1235
0.22899999999999965,0.125
0.22999999999999998,0.1495
0.23099999999999987,0.184
0.23199999999999976,0.2075
0.23299999999999965,0.2255
0.23399999999999999,0.2625
0.23499999999999988,0.299
0.23599999999999977,0.3285
0.23699999999999966,0.3665
0.238,0.4035
0.23899999999999988,0.441
0.23999999999999977,0.4765
0.24099999999999966,0.512
0.242,0.544
0.24299999999999988,0.572
0.24399999999999977,0.597
0.24499999999999966,0.6135
0.246,0.6295
0.2469999999999999,0.67
0.24799999999999978,0.701
0.24899999999999967,0.679
0.25,0.6155
0.2509999999999999,0.5355
0.2519999999999998,0.444
0.25299999999999967,0.361
0.254,0.315
0.2549999999999999,0.2665
0.2559999999999998,0.229
0.2569999999999997,0.1785
0.258,0.1005
0.2589999999999999,0.052
0.2599999999999998,0.008
0.2609999999999997,-0.05
0.262,-0.1105
0.2629999999999999,-0.172
0.2639999999999998,-0.2245
0.2649999999999997,-0.254
0.266,-0.265
0.2669999999999999,-0.293
0.2679999999999998,-0.3245
0.2689999999999997,-0.321
0.27,-0.302
0.2709999999999999,-0.2885
0.2719999999999998,-0.2545
0.2729999999999997,-0.216
0.274,-0.186
0.2749999999999999,-0.1625
0.2759999999999998,-0.1385
0.2769999999999997,-0.1185
0.278,-0.106
0.2789999999999999,-0.0865
0.2799999999999998,-0.0695
0.2809999999999997,-0.057
0.28200000000000003,-0.052
0.2829999999999999,-0.0465
0.2839999999999998,-0.0435
0.2849999999999997,-0.039
0.2859999999999996,-0.034
0.2869999999999999,-0.033
0.2879999999999998,-0.0235
0.2889999999999997,-0.016
0.2899999999999996,-0.013
0.2909999999999999,-0.011
0.2919999999999998,-0.0115
0.2929999999999997,-0.009
0.2939999999999996,-0.006
0.29499999999999993,-0.005
0.2959999999999998,-0.0035
0.2969999999999997,-0.007
0.2979999999999996,-0.0125
0.29899999999999993,-0.014
0.2999999999999998,-0.0085
0.3009999999999997,0.001
0.3019999999999996,0.002
0.30299999999999994,0.003
0.3039999999999998,0.0045
0.3049999999999997,0.0015
0.3059999999999996,0.0025
0.30699999999999994,-0.0005
0.30799999999999983,-0.0025
0.3089999999999997,0.0
0.3099999999999996,0.0025
0.31099999999999994,0.0065
0.31199999999999983,0.0025
0.3129999999999997,0.0045
0.3139999999999996,0.008
0.31499999999999995,0.0065
0.31599999999999984,0.011
0.3169999999999997,0.012
0.3179999999999996,0.014
0.31899999999999995,0.011
0.31999999999999984,0.0085
0.32099999999999973,0.0105
0.3219999999999996,0.0095
0.32299999999999995,0.016
0.32399999999999984,0.0175
0.32499999999999973,0.0145
0.3259999999999996,0.011
0.32699999999999996,0.011
0.32799999999999985,0.0145
0.32899999999999974,0.0135
0.3299999999999996,0.0125
0.33099999999999996,0.0165
0.33199999999999985,0.0165
0.33299999999999974,0.011
0.33399999999999963,0.013
0.33499999999999996,0.012
0.33599999999999985,0.006
0.33699999999999974,0.0075
0.33799999999999963,0.014
0.33899999999999997,0.018
0.33999999999999986,0.019
0.34099999999999975,0.024
0.34199999999999964,0.023
0.34299999999999997,0.0225
0.34399999999999986,0.0275
0.34499999999999975,0.0265
0.34599999999999964,0.02
0.347,0.013
0.34799999999999986,0.017
0.34899999999999975,0.021
0.34999999999999964,0.0195
0.351,0.022
0.35199999999999987,0.022
0.35299999999999976,0.0195
0.35399999999999965,0.02
0.355,0.0255
0.35599999999999987,0.0285
0.35699999999999976,0.0255
0.35799999999999965,0.0245
0.359,0.029
0.3599999999999999,0.029
0.36099999999999977,0.025
0.36199999999999966,0.024
0.363,0.019
0.3639999999999999,0.0225
0.36499999999999977,0.029
0.36599999999999966,0.0265
0.367,0.0245
0.3679999999999999,0.022
0.3689999999999998,0.0245
0.36999999999999966,0.0255
0.371,0.0255
0.3719999999999999,0.0265
0.3729999999999998,0.0285
0.37399999999999967,0.0305
0.375,0.0265
0.3759999999999999,0.027
0.3769999999999998,0.0285
0.37799999999999967,0.033
0.379,0.04
0.3799999999999999,0.0415
0.3809999999999998,0.044
0.3819999999999997,0.042
0.383,0.04
0.3839999999999999,0.0385
0.3849999999999998,0.0345
0.3859999999999997,0.0355
0.387,0.034
0.3879999999999999,0.032
0.3889999999999998,0.0295
0.3899999999999997,0.0275
0.391,0.028
0.3919999999999999,0.0315
0.3929999999999998,0.037
0.3939999999999997,0.0415
0.395,0.041
0.3959999999999999,0.0425
0.3969999999999998,0.045
0.3979999999999997,0.0405
0.399,0.0365
0.3999999999999999,0.037
0.4009999999999998,0.0345
0.4019999999999997,0.0335
0.403,0.0395
0.4039999999999999,0.0415
0.4049999999999998,0.0395
0.4059999999999997,0.0405
0.40700000000000003,0.0405
0.4079999999999999,0.039
0.4089999999999998,0.045
0.4099999999999997,0.0505
0.4109999999999996,0.048
0.4119999999999999,0.0455
0.4129999999999998,0.0405
0.4139999999999997,0.038
0.4149999999999996,0.0435
0.4159999999999999,0.047
0.4169999999999998,0.0445
0.4179999999999997,0.0425
0.4189999999999996,0.0475
0.41999999999999993,0.0575
0.4209999999999998,0.06
0.4219999999999997,0.06
0.4229999999999996,0.055
0.42399999999999993,0.048
0.4249999999999998,0.055
0.4259999999999997,0.0595
0.4269999999999996,0.0575
0.42799999999999994,0.0595
0.4289999999999998,0.058
0.4299999999999997,0.053
0.4309999999999996,0.055
0.43199999999999994,0.061
0.43299999999999983,0.0625
0.4339999999999997,0.0625
0.4349999999999996,0.0625
0.43599999999999994,0.059
0.43699999999999983,0.0615
0.4379999999999997,0.0625
0.4389999999999996,0.064
0.43999999999999995,0.0615
0.44099999999999984,0.0595
0.4419999999999997,0.064
0.4429999999999996,0.0625
0.44399999999999995,0.0605
0.44499999999999984,0.061
0.44599999999999973,0.0645
0.4469999999999996,0.0655
0.44799999999999995,0.0725
0.44899999999999984,0.0755
0.44999999999999973,0.073
0.4509999999999996,0.077
0.45199999999999996,0.079
0.45299999999999985,0.0825
0.45399999999999974,0.0845
0.4549999999999996,0.087
0.45599999999999996,0.0885
0.45699999999999985,0.091
0.45799999999999974,0.091
0.45899999999999963,0.091
0.45999999999999996,0.091
0.46099999999999985,0.087
0.46199999999999974,0.0905
0.46299999999999963,0.0905
0.46399999999999997,0.0885
0.46499999999999986,0.0875
0.46599999999999975,0.0865
0.46699999999999964,0.0885
0.46799999999999997,0.086
0.46899999999999986,0.0855
0.46999999999999975,0.0885
0.47099999999999964,0.0895
0.472,0.0875
0.47299999999999986,0.0905
0.47399999999999975,0.0905
0.47499999999999964,0.0855
0.476,0.0915
0.47699999999999987,0.097
0.47799999999999976,0.094
0.47899999999999965,0.0895
0.48,0.089
0.48099999999999987,0.096
0.48199999999999976,0.099
0.48299999999999965,0.1
0.484,0.0965
0.4849999999999999,0.0905
0.48599999999999977,0.0875
0.48699999999999966,0.0895
0.488,0.089
0.4889999999999999,0.0815
0.48999999999999977,0.0805
0.49099999999999966,0.0825
0.492,0.082
0.4929999999999999,0.0825
0.4939999999999998,0.0895
0.49499999999999966,0.0925
0.496,0.087
0.4969999999999999,0.09
0.4979999999999998,0.094
0.49899999999999967,0.096
0.5,0.0975
0.5009999999999999,0.1025
0.5019999999999998,0.1055
0.5029999999999997,0.0975
0.504,0.091
0.5049999999999999,0.0885
0.5059999999999998,0.0915
0.5069999999999997,0.088
0.508,0.0815
0.5089999999999999,0.0815
0.5099999999999998,0.083
0.5109999999999997,0.0845
0.512,0.0795
0.5129999999999999,0.0745
0.5139999999999998,0.0775
0.5149999999999997,0.077
0.516,0.072
0.5169999999999999,0.0755
0.5179999999999998,0.081
0.5189999999999997,0.087
0.52,0.0865
0.5209999999999999,0.0815
0.5219999999999998,0.078
0.5229999999999997,0.0725
0.524,0.068
0.5249999999999999,0.069
0.5259999999999998,0.0765
0.5269999999999997,0.077
0.528,0.074
0.5289999999999999,0.072
0.5299999999999998,0.0695
0.5309999999999997,0.0715
0.532,0.0715
0.5329999999999999,0.075
0.5339999999999998,0.0745
0.5349999999999997,0.0695
0.536,0.0675
0.5369999999999999,0.0665
0.5379999999999998,0.071
0.5389999999999997,0.0705
0.5399999999999996,0.0645
0.5409999999999999,0.0625
0.5419999999999998,0.067
0.5429999999999997,0.071
0.5439999999999996,0.0695
0.5449999999999999,0.069
0.5459999999999998,0.067
0.5469999999999997,0.066
0.5479999999999996,0.062
0.5489999999999999,0.059
0.5499999999999998,0.0655
0.5509999999999997,0.0645
0.5519999999999996,0.059
0.5529999999999999,0.0635
0.5539999999999998,0.0715
0.5549999999999997,0.0735
0.5559999999999996,0.0725
0.5569999999999999,0.0735
0.5579999999999998,0.0755
0.5589999999999997,0.0765
0.5599999999999996,0.072
0.5609999999999999,0.0715
0.5619999999999998,0.072
0.5629999999999997,0.069
0.5639999999999996,0.07
0.565,0.066
0.5659999999999998,0.0625
0.5669999999999997,0.0635
0.5679999999999996,0.062
0.569,0.061
0.5699999999999998,0.06
0.5709999999999997,0.062
0.5719999999999996,0.0665
0.573,0.068
0.5739999999999998,0.065
0.5749999999999997,0.0645
0.5759999999999996,0.068
0.577,0.0685
0.5779999999999998,0.0675
0.5789999999999997,0.0635
0.5799999999999996,0.0605
0.581,0.0615
0.5819999999999999,0.058
0.5829999999999997,0.054
0.5839999999999996,0.055
0.585,0.0555
0.5859999999999999,0.054
0.5869999999999997,0.0515
0.5879999999999996,0.057
0.589,0.0595
0.5899999999999999,0.0555
0.5909999999999997,0.057
0.5919999999999996,0.056
0.593,0.0625
0.5939999999999999,0.0675
0.5949999999999998,0.0675
0.5959999999999996,0.0635
0.597,0.0585
0.5979999999999999,0.057
0.5989999999999998,0.058
0.5999999999999996,0.0595
0.601,0.0595
0.6019999999999999,0.0655
0.6029999999999998,0.0615
0.6039999999999996,0.0535
0.605,0.0545
0.6059999999999999,0.0555
0.6069999999999998,0.054
0.6079999999999997,0.0565
0.609,0.061
0.6099999999999999,0.062
0.6109999999999998,0.061
0.6119999999999997,0.0585
0.613,0.0555
0.6139999999999999,0.0525
0.6149999999999998,0.052
0.6159999999999997,0.0535
0.617,0.0525
0.6179999999999999,0.0535
0.6189999999999998,0.058
0.6199999999999997,0.0595
0.621,0.055
0.6219999999999999,0.0495
0.6229999999999998,0.048
0.6239999999999997,0.0475
0.625,0.049
0.6259999999999999,0.0515
0.6269999999999998,0.0505
0.6279999999999997,0.0485
0.629,0.0485
0.6299999999999999,0.047
0.6309999999999998,0.044
0.6319999999999997,0.0435
0.633,0.0525
0.6339999999999999,0.0575
0.6349999999999998,0.053
0.6359999999999997,0.0505
0.637,0.047
0.6379999999999999,0.0475
0.6389999999999998,0.0485
0.6399999999999997,0.0485
0.641,0.049
0.6419999999999999,0.048
0.6429999999999998,0.049
0.6439999999999997,0.0495
0.645,0.0485
0.6459999999999999,0.043
0.6469999999999998,0.0435
0.6479999999999997,0.0445
0.649,0.042
0.6499999999999999,0.044
0.6509999999999998,0.0465
0.6519999999999997,0.0495
0.653,0.0495
0.6539999999999999,0.048
0.6549999999999998,0.044
0.6559999999999997,0.0445
0.657,0.049
0.6579999999999999,0.0455
0.6589999999999998,0.0475
0.6599999999999997,0.0555
0.661,0.058
0.6619999999999999,0.0525
0.6629999999999998,0.0485
0.6639999999999997,0.0465
0.665,0.041
0.6659999999999999,0.041
0.6669999999999998,0.0475
0.6679999999999997,0.05
0.6689999999999996,0.0445
0.6699999999999999,0.0415
0.6709999999999998,0.043
0.6719999999999997,0.0435
0.6729999999999996,0.044
0.6739999999999999,0.044
0.6749999999999998,0.0415
0.6759999999999997,0.0395
0.6769999999999996,0.039
0.6779999999999999,0.0385
0.6789999999999998,0.0385
0.6799999999999997,0.0405
0.6809999999999996,0.043
0.6819999999999999,0.045
0.6829999999999998,0.0405
0.6839999999999997,0.0405
0.6849999999999996,0.0415
0.6859999999999999,0.037
0.6869999999999998,0.036
0.6879999999999997,0.039
0.6889999999999996,0.041
0.69,0.039
0.6909999999999998,0.039
0.6919999999999997,0.0385
0.6929999999999996,0.0395
0.694,0.041
0.6949999999999998,0.042
0.6959999999999997,0.045
0.6969999999999996,0.0425
0.698,0.041
0.6989999999999998,0.0385
0.6999999999999997,0.034
0.7009999999999996,0.0305
0.702,0.0315
0.7029999999999998,0.0335
0.7039999999999997,0.0345
0.7049999999999996,0.036
0.706,0.0335
0.7069999999999999,0.031
0.7079999999999997,0.0325
0.7089999999999996,0.0355
0.71,0.03
0.7109999999999999,0.0295
0.7119999999999997,0.032
0.7129999999999996,0.0305
0.714,0.0365
0.7149999999999999,0.039
0.7159999999999997,0.036
0.7169999999999996,0.0395
0.718,0.048
0.7189999999999999,0.0475
0.7199999999999998,0.0405
0.7209999999999996,0.0385
0.722,0.034
0.7229999999999999,0.0325
0.7239999999999998,0.037
0.7249999999999996,0.0345
0.726,0.03
0.7269999999999999,0.0315
0.7279999999999998,0.0375
0.7289999999999996,0.0415
0.73,0.0375
0.7309999999999999,0.039
0.7319999999999998,0.0395
0.7329999999999997,0.039
0.734,0.045
0.7349999999999999,0.0465
0.7359999999999998,0.0505
0.7369999999999997,0.052
0.738,0.0465
0.7389999999999999,0.0425
0.7399999999999998,0.043
0.7409999999999997,0.042
0.742,0.042
0.7429999999999999,0.0405
0.7439999999999998,0.0395
0.7449999999999997,0.0395
0.746,0.031
0.7469999999999999,0.0295
0.7479999999999998,0.036
0.7489999999999997,0.0385
0.75,0.042
0.7509999999999999,0.046
0.7519999999999998,0.043
0.7529999999999997,0.043
0.754,0.0475
0.7549999999999999,0.0435
0.7559999999999998,0.0415
0.7569999999999997,0.0435
0.758,0.0455
0.7589999999999999,0.044
0.7599999999999998,0.0395
0.7609999999999997,0.044
0.762,0.049
0.7629999999999999,0.0505
0.7639999999999998,0.0485
0.7649999999999997,0.044
0.766,0.047
0.7669999999999999,0.0515
0.7679999999999998,0.053
0.7689999999999997,0.051
0.77,0.044
0.7709999999999999,0.043
0.7719999999999998,0.046
0.7729999999999997,0.0505
0.774,0.052
0.7749999999999999,0.0495
0.7759999999999998,0.0535
0.7769999999999997,0.0525
0.778,0.0455
0.7789999999999999,0.048
0.7799999999999998,0.051
0.7809999999999997,0.049
0.782,0.05
0.7829999999999999,0.0525
0.7839999999999998,0.0495
0.7849999999999997,0.0455
0.786,0.0425
0.7869999999999999,0.043
0.7879999999999998,0.05
0.7889999999999997,0.051
0.79,0.0505
0.7909999999999999,0.0535
0.7919999999999998,0.057
0.7929999999999997,0.059
0.7939999999999996,0.056
0.7949999999999999,0.0535
0.7959999999999998,0.055
0.7969999999999997,0.054
0.7979999999999996,0.052
0.7989999999999999,0.0555
