timestamp,value
0.0,0.0655
0.0009999999999994458,0.062
0.0019999999999988916,0.066
0.0030000000000001137,0.0735
0.0039999999999995595,0.0745
0.004999999999999005,0.079
0.006000000000000227,0.0795
0.006999999999999673,0.0745
0.007999999999999119,0.072
0.009000000000000341,0.07
0.009999999999999787,0.0685
0.010999999999999233,0.0725
0.011999999999998678,0.0715
0.0129999999999999,0.069
0.013999999999999346,0.0725
0.014999999999998792,0.072
0.016000000000000014,0.071
0.01699999999999946,0.0725
0.017999999999998906,0.0745
0.019000000000000128,0.0755
0.019999999999999574,0.0745
0.02099999999999902,0.079
0.02200000000000024,0.085
0.022999999999999687,0.086
0.023999999999999133,0.0805
0.025000000000000355,0.0785
0.0259999999999998,0.0785
0.026999999999999247,0.075
0.027999999999998693,0.0725
0.028999999999999915,0.0745
0.02999999999999936,0.076
0.030999999999998806,0.0725
0.03200000000000003,0.075
0.032999999999999474,0.0745
0.03399999999999892,0.071
0.03500000000000014,0.0765
0.03599999999999959,0.081
0.036999999999999034,0.079
0.038000000000000256,0.076
0.0389999999999997,0.077
0.03999999999999915,0.077
0.04100000000000037,0.073
0.041999999999999815,0.0715
0.04299999999999926,0.072
0.04399999999999871,0.071
0.04499999999999993,0.0725
0.045999999999999375,0.0735
0.04699999999999882,0.0715
0.04800000000000004,0.0735
0.04899999999999949,0.0715
0.049999999999998934,0.07
0.051000000000000156,0.0715
0.0519999999999996,0.0745
0.05299999999999905,0.0785
0.05400000000000027,0.0765
0.054999999999999716,0.08
0.05599999999999916,0.088
0.057000000000000384,0.0885
0.05799999999999983,0.0885
0.058999999999999275,0.093
0.05999999999999872,0.098
0.06099999999999994,0.096
0.06199999999999939,0.0925
0.06299999999999883,0.095
0.06400000000000006,0.097
0.0649999999999995,0.0935
0.06599999999999895,0.0895
0.06700000000000017,0.0965
0.06799999999999962,0.0995
0.06899999999999906,0.0975
0.07000000000000028,0.1055
0.07099999999999973,0.108
0.07199999999999918,0.1045
0.0730000000000004,0.1005
0.07399999999999984,0.103
0.07499999999999929,0.102
0.07599999999999874,0.099
0.07699999999999996,0.1015
0.0779999999999994,0.101
0.07899999999999885,0.106
0.08000000000000007,0.113
0.08099999999999952,0.111
0.08199999999999896,0.1095
0.08300000000000018,0.1075
0.08399999999999963,0.113
0.08499999999999908,0.1245
0.0860000000000003,0.1245
0.08699999999999974,0.123
0.08799999999999919,0.1215
0.08899999999999864,0.118
0.08999999999999986,0.113
0.0909999999999993,0.111
0.09199999999999875,0.112
0.09299999999999997,0.111
0.09399999999999942,0.11
0.09499999999999886,0.108
0.09600000000000009,0.1105
0.09699999999999953,0.112
0.09799999999999898,0.109
0.0990000000000002,0.111
0.09999999999999964,0.115
0.10099999999999909,0.119
0.10200000000000031,0.125
0.10299999999999976,0.129
0.1039999999999992,0.133
0.10499999999999865,0.1395
0.10599999999999987,0.14
0.10699999999999932,0.132
0.10799999999999876,0.13
0.10899999999999999,0.1325
0.10999999999999943,0.132
0.11099999999999888,0.1335
0.1120000000000001,0.1345
0.11299999999999955,0.136
0.11399999999999899,0.1355
0.11500000000000021,0.135
0.11599999999999966,0.139
0.1169999999999991,0.141
0.11800000000000033,0.141
0.11899999999999977,0.141
0.11999999999999922,0.14
0.12099999999999866,0.1395
0.12199999999999989,0.142
0.12299999999999933,0.144
0.12399999999999878,0.142
0.125,0.1395
0.12599999999999945,0.1345
0.1269999999999989,0.133
0.1280000000000001,0.132
0.12899999999999956,0.13
0.129999999999999,0.1325
0.13100000000000023,0.13
0.13199999999999967,0.1255
0.13299999999999912,0.1265
0.13400000000000034,0.126
0.1349999999999998,0.123
0.13599999999999923,0.119
0.13699999999999868,0.119
0.1379999999999999,0.1195
0.13899999999999935,0.1225
0.1399999999999988,0.124
0.14100000000000001,0.1265
0.14199999999999946,0.129
0.1429999999999989,0.1295
0.14400000000000013,0.1285
0.14499999999999957,0.123
0.14599999999999902,0.12
0.14700000000000024,0.1165
0.1479999999999997,0.1095
0.14899999999999913,0.1035
0.15000000000000036,0.097
0.1509999999999998,0.093
0.15199999999999925,0.091
0.1529999999999987,0.092
0.15399999999999991,0.091
0.15499999999999936,0.081
0.1559999999999988,0.075
0.15700000000000003,0.0745
0.15799999999999947,0.076
0.15899999999999892,0.0705
0.16000000000000014,0.0685
0.1609999999999996,0.0735
0.16199999999999903,0.0715
0.16300000000000026,0.0715
0.1639999999999997,0.0735
0.16499999999999915,0.0755
0.16600000000000037,0.0745
0.16699999999999982,0.07
0.16799999999999926,0.0675
0.1689999999999987,0.067
0.16999999999999993,0.0685
0.17099999999999937,0.0715
0.17199999999999882,0.0695
0.17300000000000004,0.062
0.1739999999999995,0.06
0.17499999999999893,0.0635
0.17600000000000016,0.0665
0.1769999999999996,0.0655
0.17799999999999905,0.064
0.17900000000000027,0.06
0.17999999999999972,0.0585
0.18099999999999916,0.066
0.18200000000000038,0.069
0.18299999999999983,0.0655
0.18399999999999928,0.064
0.18499999999999872,0.0655
0.18599999999999994,0.065
0.1869999999999994,0.068
0.18799999999999883,0.0725
0.18900000000000006,0.07
0.1899999999999995,0.065
0.19099999999999895,0.063
0.19200000000000017,0.063
0.19299999999999962,0.063
0.19399999999999906,0.063
0.19500000000000028,0.067
0.19599999999999973,0.066
0.19699999999999918,0.0605
0.1980000000000004,0.0585
0.19899999999999984,0.0655
0.1999999999999993,0.0725
0.20099999999999874,0.072
0.20199999999999996,0.0715
0.2029999999999994,0.069
0.20399999999999885,0.0655
0.20500000000000007,0.0645
0.20599999999999952,0.067
0.20699999999999896,0.066
0.20800000000000018,0.071
0.20899999999999963,0.0765
0.20999999999999908,0.0805
0.2110000000000003,0.079
0.21199999999999974,0.0815
0.2129999999999992,0.0965
0.2140000000000004,0.097
0.21499999999999986,0.098
0.2159999999999993,0.107
0.21699999999999875,0.1105
0.21799999999999997,0.1145
0.21899999999999942,0.1265
0.21999999999999886,0.1365
0.22100000000000009,0.1345
0.22199999999999953,0.1325
0.22299999999999898,0.1335
0.2240000000000002,0.1365
0.22499999999999964,0.143
0.2259999999999991,0.1515
0.2270000000000003,0.1515
0.22799999999999976,0.1635
0.2289999999999992,0.2045
0.22999999999999865,0.239
0.23099999999999987,0.254
0.23199999999999932,0.2715
0.23299999999999876,0.3075
0.23399999999999999,0.336
0.23499999999999943,0.3685
0.23599999999999888,0.413
0.2370000000000001,0.4475
0.23799999999999955,0.4775
0.238999999999999,0.515
0.2400000000000002,0.5595
0.24099999999999966,0.597
0.2419999999999991,0.632
0.24300000000000033,0.6565
0.24399999999999977,0.6665
0.24499999999999922,0.6885
0.24599999999999866,0.7315
0.2469999999999999,0.748
0.24799999999999933,0.7155
0.24899999999999878,0.6455
0.25,0.5595
0.25099999999999945,0.4665
0.2519999999999989,0.3985
0.2530000000000001,0.352
0.25399999999999956,0.2965
0.254999999999999,0.2605
0.2560000000000002,0.198
0.2569999999999997,0.124
0.2579999999999991,0.083
0.25900000000000034,0.0345
0.2599999999999998,-0.025
0.26099999999999923,-0.087
0.2619999999999987,-0.1505
0.2629999999999999,-0.1995
0.26399999999999935,-0.222
0.2649999999999988,-0.232
0.266,-0.263
0.26699999999999946,-0.287
0.2679999999999989,-0.273
0.26900000000000013,-0.2615
0.2699999999999996,-0.2495
0.270999999999999,-0.217
0.27200000000000024,-0.188
0.2729999999999997,-0.1595
0.27399999999999913,-0.132
0.27500000000000036,-0.1105
0.2759999999999998,-0.091
0.27699999999999925,-0.076
0.2779999999999987,-0.062
0.2789999999999999,-0.0485
0.27999999999999936,-0.0435
0.2809999999999988,-0.0395
0.28200000000000003,-0.0295
0.2829999999999995,-0.0215
0.2839999999999989,-0.015
0.28500000000000014,-0.005
0.2859999999999996,0.002
0.28699999999999903,0.0085
0.28800000000000026,0.019
0.2889999999999997,0.0255
0.28999999999999915,0.026
0.29100000000000037,0.0225
0.2919999999999998,0.022
0.29299999999999926,0.025
0.2939999999999987,0.0275
0.29499999999999993,0.0265
0.2959999999999994,0.0225
0.2969999999999988,0.024
0.29800000000000004,0.0225
0.2989999999999995,0.0245
0.29999999999999893,0.027
0.30100000000000016,0.0275
0.3019999999999996,0.029
0.30299999999999905,0.0285
0.30400000000000027,0.035
0.3049999999999997,0.035
0.30599999999999916,0.0345
0.3070000000000004,0.0345
0.30799999999999983,0.0275
0.3089999999999993,0.0285
0.3099999999999987,0.0305
0.31099999999999994,0.0315
0.3119999999999994,0.031
0.31299999999999883,0.0315
0.31400000000000006,0.033
0.3149999999999995,0.0295
0.31599999999999895,0.0295
0.31700000000000017,0.0345
0.3179999999999996,0.038
0.31899999999999906,0.042
0.3200000000000003,0.044
0.32099999999999973,0.0405
0.3219999999999992,0.038
0.3230000000000004,0.0375
0.32399999999999984,0.0385
0.3249999999999993,0.038
0.32599999999999874,0.036
0.32699999999999996,0.033
0.3279999999999994,0.0275
0.32899999999999885,0.0285
0.33000000000000007,0.035
0.3309999999999995,0.0375
0.33199999999999896,0.034
0.3330000000000002,0.0275
0.33399999999999963,0.023
0.3349999999999991,0.0275
0.3360000000000003,0.029
0.33699999999999974,0.0345
0.3379999999999992,0.0355
0.3390000000000004,0.0385
0.33999999999999986,0.0455
0.3409999999999993,0.0405
0.34199999999999875,0.0405
0.34299999999999997,0.0365
0.3439999999999994,0.032
0.34499999999999886,0.0355
0.3460000000000001,0.039
0.34699999999999953,0.042
0.347999999999999,0.0435
0.3490000000000002,0.0435
0.34999999999999964,0.043
0.3509999999999991,0.0445
0.3520000000000003,0.041
0.35299999999999976,0.0345
0.3539999999999992,0.0315
0.35499999999999865,0.0275
0.35599999999999987,0.026
0.3569999999999993,0.025
0.35799999999999876,0.033
0.359,0.0445
0.35999999999999943,0.048
0.3609999999999989,0.05
0.3620000000000001,0.0525
0.36299999999999955,0.051
0.363999999999999,0.0475
0.3650000000000002,0.0495
0.36599999999999966,0.0505
0.3669999999999991,0.049
0.3680000000000003,0.0475
0.3689999999999998,0.048
0.3699999999999992,0.047
0.37099999999999866,0.0445
0.3719999999999999,0.0435
0.37299999999999933,0.047
0.3739999999999988,0.053
0.375,0.0505
0.37599999999999945,0.0485
0.3769999999999989,0.042
0.3780000000000001,0.036
0.37899999999999956,0.038
0.379999999999999,0.0355
0.3810000000000002,0.0335
0.3819999999999997,0.035
0.3829999999999991,0.039
0.38400000000000034,0.039
0.3849999999999998,0.041
0.38599999999999923,0.045
0.3869999999999987,0.0435
0.3879999999999999,0.041
0.38899999999999935,0.038
0.3899999999999988,0.043
0.391,0.0455
0.39199999999999946,0.045
0.3929999999999989,0.0475
0.39400000000000013,0.053
0.3949999999999996,0.055
0.395999999999999,0.05
0.39700000000000024,0.05
0.3979999999999997,0.0475
0.39899999999999913,0.0485
0.40000000000000036,0.0505
0.4009999999999998,0.0485
0.40199999999999925,0.0485
0.4029999999999987,0.046
0.4039999999999999,0.0475
0.40499999999999936,0.055
0.4059999999999988,0.0595
0.40700000000000003,0.06
0.4079999999999995,0.061
0.4089999999999989,0.059
0.41000000000000014,0.0605
0.4109999999999996,0.066
0.41199999999999903,0.063
0.41300000000000026,0.0635
0.4139999999999997,0.065
0.41499999999999915,0.06
0.41600000000000037,0.055
0.4169999999999998,0.053
0.41799999999999926,0.062
0.4189999999999987,0.072
0.41999999999999993,0.068
0.4209999999999994,0.0645
0.4219999999999988,0.057
0.42300000000000004,0.058
0.4239999999999995,0.068
0.42499999999999893,0.0725
0.42600000000000016,0.0705
0.4269999999999996,0.063
0.42799999999999905,0.0615
0.42900000000000027,0.063
0.4299999999999997,0.066
0.43099999999999916,0.066
0.4320000000000004,0.0665
0.43299999999999983,0.0665
0.4339999999999993,0.068
0.4349999999999987,0.0715
0.43599999999999994,0.073
0.4369999999999994,0.0825
0.43799999999999883,0.083
0.43900000000000006,0.081
0.4399999999999995,0.0805
0.44099999999999895,0.0815
0.44200000000000017,0.0825
0.4429999999999996,0.0825
0.44399999999999906,0.083
0.4450000000000003,0.089
0.44599999999999973,0.097
0.4469999999999992,0.0955
0.4480000000000004,0.0965
0.44899999999999984,0.095
0.4499999999999993,0.0905
0.45099999999999874,0.084
0.45199999999999996,0.0785
0.4529999999999994,0.077
0.45399999999999885,0.078
0.45500000000000007,0.081
0.4559999999999995,0.079
0.45699999999999896,0.0795
0.4580000000000002,0.0825
0.45899999999999963,0.089
0.4599999999999991,0.094
0.4610000000000003,0.097
0.46199999999999974,0.1
0.4629999999999992,0.095
0.4640000000000004,0.088
0.46499999999999986,0.0905
0.4659999999999993,0.097
0.46699999999999875,0.095
0.46799999999999997,0.089
0.4689999999999994,0.09
0.46999999999999886,0.095
0.4710000000000001,0.0945
0.47199999999999953,0.098
0.472999999999999,0.1065
0.4740000000000002,0.1055
0.47499999999999964,0.103
0.4759999999999991,0.108
0.4770000000000003,0.111
0.47799999999999976,0.1115
0.4789999999999992,0.1125
0.47999999999999865,0.1105
0.48099999999999987,0.1095
0.4819999999999993,0.112
0.48299999999999876,0.1115
0.484,0.1085
0.48499999999999943,0.106
0.4859999999999989,0.1055
0.4870000000000001,0.1065
0.48799999999999955,0.104
0.488999999999999,0.1035
0.4900000000000002,0.1
0.49099999999999966,0.103
0.4919999999999991,0.108
0.4930000000000003,0.107
0.4939999999999998,0.11
0.4949999999999992,0.109
0.49599999999999866,0.1055
0.4969999999999999,0.1065
0.49799999999999933,0.109
0.4989999999999988,0.1055
0.5,0.1015
0.5009999999999994,0.106
0.5019999999999989,0.107
0.5030000000000001,0.102
0.5039999999999996,0.1
0.504999999999999,0.0995
0.5060000000000002,0.0985
0.5069999999999997,0.0955
0.5079999999999991,0.0905
0.5090000000000003,0.085
0.5099999999999998,0.0855
0.5109999999999992,0.0885
0.5119999999999987,0.0915
0.5129999999999999,0.097
0.5139999999999993,0.0975
0.5149999999999988,0.1005
0.516,0.099
0.5169999999999995,0.096
0.5179999999999989,0.095
0.5190000000000001,0.0915
0.5199999999999996,0.086
0.520999999999999,0.0845
0.5220000000000002,0.092
0.5229999999999997,0.093
0.5239999999999991,0.0925
0.5250000000000004,0.095
0.5259999999999998,0.09
0.5269999999999992,0.0815
0.5279999999999987,0.0865
0.5289999999999999,0.085
0.5299999999999994,0.08
0.5309999999999988,0.0825
0.532,0.081
0.5329999999999995,0.076
0.5339999999999989,0.071
0.5350000000000001,0.074
0.5359999999999996,0.0815
0.536999999999999,0.0875
0.5380000000000003,0.088
0.5389999999999997,0.0905
0.5399999999999991,0.088
0.5410000000000004,0.084
0.5419999999999998,0.0785
0.5429999999999993,0.0755
0.5439999999999987,0.081
0.5449999999999999,0.0845
0.5459999999999994,0.0825
0.5469999999999988,0.0765
0.548,0.07
0.5489999999999995,0.0675
0.5499999999999989,0.0715
0.5510000000000002,0.07
0.5519999999999996,0.0675
0.552999999999999,0.0675
0.5540000000000003,0.072
0.5549999999999997,0.075
0.5559999999999992,0.0685
0.5570000000000004,0.069
0.5579999999999998,0.07
0.5589999999999993,0.078
0.5599999999999987,0.0835
0.5609999999999999,0.08
0.5619999999999994,0.079
0.5629999999999988,0.0755
0.5640000000000001,0.0755
0.5649999999999995,0.077
0.565999999999999,0.077
0.5670000000000002,0.078
0.5679999999999996,0.081
0.5689999999999991,0.0765
0.5700000000000003,0.0735
0.5709999999999997,0.0735
0.5719999999999992,0.072
0.5730000000000004,0.0745
0.5739999999999998,0.075
0.5749999999999993,0.0695
0.5759999999999987,0.0655
0.577,0.0685
0.5779999999999994,0.0705
0.5789999999999988,0.0645
0.5800000000000001,0.0645
0.5809999999999995,0.0675
0.581999999999999,0.064
0.5830000000000002,0.067
0.5839999999999996,0.07
0.5849999999999991,0.07
0.5860000000000003,0.0675
0.5869999999999997,0.0675
0.5879999999999992,0.0725
0.5890000000000004,0.0665
0.5899999999999999,0.0605
0.5909999999999993,0.0615
0.5919999999999987,0.057
0.593,0.053
0.5939999999999994,0.0565
0.5949999999999989,0.0625
0.5960000000000001,0.0595
0.5969999999999995,0.0555
0.597999999999999,0.0615
0.5990000000000002,0.065
0.5999999999999996,0.0615
0.6009999999999991,0.0555
0.6020000000000003,0.054
0.6029999999999998,0.0535
0.6039999999999992,0.0545
0.6049999999999986,0.0585
0.6059999999999999,0.059
0.6069999999999993,0.059
0.6079999999999988,0.0605
0.609,0.0625
0.6099999999999994,0.061
0.6109999999999989,0.061
0.6120000000000001,0.0635
0.6129999999999995,0.062
0.613999999999999,0.0565
0.6150000000000002,0.0555
0.6159999999999997,0.059
0.6169999999999991,0.06
0.6180000000000003,0.0595
0.6189999999999998,0.06
0.6199999999999992,0.0585
0.6209999999999987,0.0545
0.6219999999999999,0.0535
0.6229999999999993,0.055
0.6239999999999988,0.0535
0.625,0.054
0.6259999999999994,0.058
0.6269999999999989,0.052
0.6280000000000001,0.0485
0.6289999999999996,0.0485
0.629999999999999,0.0425
0.6310000000000002,0.0415
0.6319999999999997,0.045
0.6329999999999991,0.0465
0.6340000000000003,0.0445
0.6349999999999998,0.04
0.6359999999999992,0.0395
0.6369999999999987,0.047
0.6379999999999999,0.053
0.6389999999999993,0.053
0.6399999999999988,0.054
0.641,0.0535
0.6419999999999995,0.047
0.6429999999999989,0.047
0.6440000000000001,0.051
0.6449999999999996,0.0485
0.645999999999999,0.049
0.6470000000000002,0.053
0.6479999999999997,0.0555
0.6489999999999991,0.052
0.6500000000000004,0.0495
0.6509999999999998,0.0505
0.6519999999999992,0.0425
0.6529999999999987,0.0405
0.6539999999999999,0.0455
0.6549999999999994,0.0435
0.6559999999999988,0.043
0.657,0.0405
0.6579999999999995,0.038
0.6589999999999989,0.04
0.6600000000000001,0.04
0.6609999999999996,0.0365
0.661999999999999,0.0375
0.6630000000000003,0.0465
0.6639999999999997,0.048
0.6649999999999991,0.043
0.6660000000000004,0.0435
0.6669999999999998,0.04
0.6679999999999993,0.0355
0.6689999999999987,0.038
0.6699999999999999,0.038
0.6709999999999994,0.0425
0.6719999999999988,0.0445
0.673,0.0405
0.6739999999999995,0.04
0.6749999999999989,0.0425
0.6760000000000002,0.042
0.6769999999999996,0.04
0.677999999999999,0.043
0.6790000000000003,0.0405
0.6799999999999997,0.038
0.6809999999999992,0.039
0.6820000000000004,0.036
0.6829999999999998,0.034
0.6839999999999993,0.032
0.6849999999999987,0.033
0.6859999999999999,0.0345
0.6869999999999994,0.0315
0.6879999999999988,0.0315
0.6890000000000001,0.032
0.6899999999999995,0.031
0.690999999999999,0.035
0.6920000000000002,0.0325
0.6929999999999996,0.026
0.6939999999999991,0.026
0.6950000000000003,0.0305
0.6959999999999997,0.0295
0.6969999999999992,0.0225
0.6980000000000004,0.0235
0.6989999999999998,0.026
0.6999999999999993,0.0275
0.7009999999999987,0.033
0.702,0.03
0.7029999999999994,0.0285
0.7039999999999988,0.036
0.7050000000000001,0.0425
0.7059999999999995,0.047
0.706999999999999,0.0465
0.7080000000000002,0.042
0.7089999999999996,0.0395
0.7099999999999991,0.034
0.7110000000000003,0.028
0.7119999999999997,0.028
0.7129999999999992,0.032
0.7140000000000004,0.032
0.7149999999999999,0.0345
0.7159999999999993,0.04
0.7169999999999987,0.0395
0.718,0.038
0.7189999999999994,0.0375
0.7199999999999989,0.04
0.7210000000000001,0.039
0.7219999999999995,0.042
0.722999999999999,0.0435
0.7240000000000002,0.04
0.7249999999999996,0.045
0.7259999999999991,0.042
0.7270000000000003,0.037
0.7279999999999998,0.0355
0.7289999999999992,0.033
0.7299999999999986,0.0335
0.7309999999999999,0.034
0.7319999999999993,0.0315
0.7329999999999988,0.032
0.734,0.0315
0.7349999999999994,0.0315
0.7359999999999989,0.0335
0.7370000000000001,0.029
0.7379999999999995,0.0265
0.738999999999999,0.0275
0.7400000000000002,0.0335
0.7409999999999997,0.0335
0.7419999999999991,0.0265
0.7430000000000003,0.0295
0.7439999999999998,0.035
0.7449999999999992,0.034
0.7459999999999987,0.0295
0.7469999999999999,0.03
0.7479999999999993,0.036
0.7489999999999988,0.0375
0.75,0.042
0.7509999999999994,0.0465
0.7519999999999989,0.0465
0.7530000000000001,0.0455
0.7539999999999996,0.0425
0.754999999999999,0.0405
0.7560000000000002,0.04
0.7569999999999997,0.04
0.7579999999999991,0.0345
0.7590000000000003,0.033
0.7599999999999998,0.042
0.7609999999999992,0.0455
0.7619999999999987,0.043
0.7629999999999999,0.041
0.7639999999999993,0.04
0.7649999999999988,0.0445
0.766,0.04
0.7669999999999995,0.028
0.7679999999999989,0.0325
0.7690000000000001,0.0405
0.7699999999999996,0.0385
0.770999999999999,0.037
0.7720000000000002,0.042
0.7729999999999997,0.0415
0.7739999999999991,0.037
0.7750000000000004,0.044
0.7759999999999998,0.046
0.7769999999999992,0.043
0.7779999999999987,0.0455
0.7789999999999999,0.052
0.7799999999999994,0.0505
0.7809999999999988,0.043
0.782,0.0435
0.7829999999999995,0.043
0.7839999999999989,0.0415
0.7850000000000001,0.0445
0.7859999999999996,0.0415
0.786999999999999,0.0385
0.7880000000000003,0.0435
0.7889999999999997,0.0425
0.7899999999999991,0.0385
0.7910000000000004,0.039
0.7919999999999998,0.0375
0.7929999999999993,0.0355
0.7939999999999987,0.0405
0.7949999999999999,0.0445
0.7959999999999994,0.045
0.7969999999999988,0.042
0.798,0.0425
0.7989999999999995,0.0425
