timestamp,value
0.0,-0.0955
0.0010000000000047748,-0.0945
0.001999999999995339,-0.097
0.0030000000000001137,-0.097
0.0040000000000048885,-0.0965
0.0049999999999954525,-0.0995
0.006000000000000227,-0.1025
0.007000000000005002,-0.1
0.007999999999995566,-0.096
0.009000000000000341,-0.098
0.010000000000005116,-0.105
0.01099999999999568,-0.106
0.012000000000000455,-0.1075
0.01300000000000523,-0.107
0.013999999999995794,-0.1065
0.015000000000000568,-0.1035
0.016000000000005343,-0.0985
0.016999999999995907,-0.105
0.018000000000000682,-0.105
0.019000000000005457,-0.104
0.01999999999999602,-0.1055
0.021000000000000796,-0.1015
0.02200000000000557,-0.103
0.022999999999996135,-0.106
0.02400000000000091,-0.102
0.025000000000005684,-0.102
0.02599999999999625,-0.1035
0.027000000000001023,-0.103
0.028000000000005798,-0.1045
0.028999999999996362,-0.099
0.030000000000001137,-0.1015
0.03100000000000591,-0.1095
0.031999999999996476,-0.108
0.03300000000000125,-0.102
0.034000000000006025,-0.104
0.03499999999999659,-0.1025
0.036000000000001364,-0.1035
0.03700000000000614,-0.1055
0.0379999999999967,-0.0975
0.03900000000000148,-0.099
0.04000000000000625,-0.098
0.04099999999999682,-0.1
0.04200000000000159,-0.1015
0.043000000000006366,-0.096
0.04399999999999693,-0.1005
0.045000000000001705,-0.103
0.04600000000000648,-0.101
0.046999999999997044,-0.1035
0.04800000000000182,-0.1055
0.049000000000006594,-0.1005
0.04999999999999716,-0.1025
0.05100000000000193,-0.1055
0.05200000000000671,-0.102
0.05299999999999727,-0.104
0.054000000000002046,-0.103
0.05500000000000682,-0.0975
0.055999999999997385,-0.101
0.05700000000000216,-0.102
0.058000000000006935,-0.098
0.0589999999999975,-0.098
0.060000000000002274,-0.0955
0.06100000000000705,-0.0955
0.06199999999999761,-0.0975
0.06300000000000239,-0.095
0.06400000000000716,-0.098
0.06499999999999773,-0.101
0.0660000000000025,-0.105
0.06700000000000728,-0.103
0.06799999999999784,-0.102
0.06900000000000261,-0.1005
0.07000000000000739,-0.0975
0.07099999999999795,-0.101
0.07200000000000273,-0.101
0.0730000000000075,-0.102
0.07399999999999807,-0.0965
0.07500000000000284,-0.0945
0.07600000000000762,-0.0925
0.07699999999999818,-0.0875
0.07800000000000296,-0.0885
0.07900000000000773,-0.084
0.0799999999999983,-0.077
0.08100000000000307,-0.0815
0.08200000000000784,-0.0845
0.08299999999999841,-0.078
0.08400000000000318,-0.0765
0.08500000000000796,-0.08
0.08599999999999852,-0.082
0.0870000000000033,-0.0835
0.08800000000000807,-0.081
0.08899999999999864,-0.0775
0.09000000000000341,-0.0805
0.09100000000000819,-0.0785
0.09199999999999875,-0.077
0.09300000000000352,-0.08
0.0940000000000083,-0.077
0.09499999999999886,-0.0765
0.09600000000000364,-0.0745
0.09700000000000841,-0.068
0.09799999999999898,-0.0665
0.09900000000000375,-0.065
0.10000000000000853,-0.0595
0.10099999999999909,-0.0635
0.10200000000000387,-0.062
0.10300000000000864,-0.0655
0.1039999999999992,-0.075
0.10500000000000398,-0.066
0.10600000000000875,-0.0675
0.10699999999999932,-0.07
0.10800000000000409,-0.063
0.10900000000000887,-0.063
0.10999999999999943,-0.059
0.1110000000000042,-0.055
0.11200000000000898,-0.056
0.11299999999999955,-0.0535
0.11400000000000432,-0.049
0.1150000000000091,-0.044
0.11599999999999966,-0.038
0.11700000000000443,-0.029
0.117999999999995,-0.03
0.11899999999999977,-0.0335
0.12000000000000455,-0.033
0.12099999999999511,-0.0285
0.12199999999999989,-0.023
0.12300000000000466,-0.022
0.12399999999999523,-0.02
0.125,-0.021
0.12600000000000477,-0.0225
0.12699999999999534,-0.022
0.1280000000000001,-0.018
0.1290000000000049,-0.017
0.12999999999999545,-0.0165
0.13100000000000023,-0.0185
0.132000000000005,-0.0235
0.13299999999999557,-0.023
0.13400000000000034,-0.021
0.13500000000000512,-0.015
0.13599999999999568,-0.016
0.13700000000000045,-0.0185
0.13800000000000523,-0.0135
0.1389999999999958,-0.012
0.14000000000000057,-0.015
0.14100000000000534,-0.016
0.1419999999999959,-0.0205
0.14300000000000068,-0.0255
0.14400000000000546,-0.0345
0.14499999999999602,-0.041
0.1460000000000008,-0.042
0.14700000000000557,-0.045
0.14799999999999613,-0.042
0.1490000000000009,-0.0425
0.15000000000000568,-0.0455
0.15099999999999625,-0.049
0.15200000000000102,-0.0525
0.1530000000000058,-0.0545
0.15399999999999636,-0.0535
0.15500000000000114,-0.051
0.1560000000000059,-0.055
0.15699999999999648,-0.0565
0.15800000000000125,-0.063
0.15900000000000603,-0.0675
0.1599999999999966,-0.0645
0.16100000000000136,-0.065
0.16200000000000614,-0.0665
0.1629999999999967,-0.0675
0.16400000000000148,-0.0725
0.16500000000000625,-0.077
0.16599999999999682,-0.0785
0.1670000000000016,-0.085
0.16800000000000637,-0.088
0.16899999999999693,-0.0905
0.1700000000000017,-0.095
0.17100000000000648,-0.0965
0.17199999999999704,-0.0995
0.17300000000000182,-0.0995
0.1740000000000066,-0.0985
0.17499999999999716,-0.1005
0.17600000000000193,-0.1045
0.1770000000000067,-0.1055
0.17799999999999727,-0.1015
0.17900000000000205,-0.1025
0.18000000000000682,-0.1045
0.18099999999999739,-0.106
0.18200000000000216,-0.1065
0.18300000000000693,-0.106
0.1839999999999975,-0.1085
0.18500000000000227,-0.113
0.18600000000000705,-0.1175
0.1869999999999976,-0.118
0.1880000000000024,-0.115
0.18900000000000716,-0.1145
0.18999999999999773,-0.122
0.1910000000000025,-0.1245
0.19200000000000728,-0.121
0.19299999999999784,-0.12
0.19400000000000261,-0.1155
0.1950000000000074,-0.1215
0.19599999999999795,-0.124
0.19700000000000273,-0.1205
0.1980000000000075,-0.1165
0.19899999999999807,-0.119
0.20000000000000284,-0.1235
0.20100000000000762,-0.119
0.20199999999999818,-0.1205
0.20300000000000296,-0.1175
0.20400000000000773,-0.12
0.2049999999999983,-0.1245
0.20600000000000307,-0.1215
0.20700000000000784,-0.1225
0.2079999999999984,-0.124
0.20900000000000318,-0.1305
0.21000000000000796,-0.135
0.21099999999999852,-0.1365
0.2120000000000033,-0.14
0.21300000000000807,-0.1435
0.21399999999999864,-0.1445
0.2150000000000034,-0.149
0.21600000000000819,-0.146
0.21699999999999875,-0.1385
0.21800000000000352,-0.139
0.2190000000000083,-0.137
0.21999999999999886,-0.1305
0.22100000000000364,-0.1215
0.2220000000000084,-0.118
0.22299999999999898,-0.111
0.22400000000000375,-0.1005
0.22500000000000853,-0.088
0.2259999999999991,-0.0735
0.22700000000000387,-0.065
0.22800000000000864,-0.0485
0.2289999999999992,-0.039
0.23000000000000398,-0.0305
0.23100000000000875,-0.012
0.23199999999999932,0.0095
0.2330000000000041,0.0405
0.23400000000000887,0.0665
0.23499999999999943,0.0985
0.2360000000000042,0.1275
0.23700000000000898,0.1475
0.23799999999999955,0.187
0.23900000000000432,0.2385
0.2400000000000091,0.311
0.24099999999999966,0.372
0.24200000000000443,0.4125
0.242999999999995,0.4545
0.24399999999999977,0.4965
0.24500000000000455,0.537
0.2459999999999951,0.5325
0.2469999999999999,0.5275
0.24800000000000466,0.534
0.24899999999999523,0.515
0.25,0.4815
0.2510000000000048,0.4285
0.25199999999999534,0.3715
0.2530000000000001,0.329
0.2540000000000049,0.2915
0.25499999999999545,0.2435
0.2560000000000002,0.2095
0.257000000000005,0.186
0.25799999999999557,0.156
0.25900000000000034,0.1315
0.2600000000000051,0.1115
0.2609999999999957,0.0875
0.26200000000000045,0.0665
0.26300000000000523,0.037
0.2639999999999958,0.006
0.26500000000000057,-0.018
0.26600000000000534,-0.0475
0.2669999999999959,-0.074
0.2680000000000007,-0.106
0.26900000000000546,-0.135
0.269999999999996,-0.1585
0.2710000000000008,-0.181
0.27200000000000557,-0.1895
0.27299999999999613,-0.195
0.2740000000000009,-0.201
0.2750000000000057,-0.2065
0.27599999999999625,-0.208
0.277000000000001,-0.207
0.2780000000000058,-0.2055
0.27899999999999636,-0.1945
0.28000000000000114,-0.1905
0.2810000000000059,-0.1925
0.2819999999999965,-0.1885
0.28300000000000125,-0.1835
0.284000000000006,-0.176
0.2849999999999966,-0.178
0.28600000000000136,-0.1765
0.28700000000000614,-0.167
0.2879999999999967,-0.1675
0.2890000000000015,-0.159
0.29000000000000625,-0.152
0.2909999999999968,-0.1555
0.2920000000000016,-0.152
0.29300000000000637,-0.1455
0.29399999999999693,-0.1415
0.2950000000000017,-0.1395
0.2960000000000065,-0.1355
0.29699999999999704,-0.1335
0.2980000000000018,-0.1295
0.2990000000000066,-0.1265
0.29999999999999716,-0.122
0.30100000000000193,-0.1165
0.3020000000000067,-0.115
0.30299999999999727,-0.119
0.30400000000000205,-0.1215
0.3050000000000068,-0.119
0.3059999999999974,-0.1165
0.30700000000000216,-0.116
0.30800000000000693,-0.119
0.3089999999999975,-0.1145
0.3100000000000023,-0.1155
0.31100000000000705,-0.1205
0.3119999999999976,-0.1185
0.3130000000000024,-0.115
0.31400000000000716,-0.112
0.3149999999999977,-0.113
0.3160000000000025,-0.1145
0.3170000000000073,-0.116
0.31799999999999784,-0.1155
0.3190000000000026,-0.113
0.3200000000000074,-0.109
0.32099999999999795,-0.11
0.32200000000000273,-0.111
0.3230000000000075,-0.1125
0.32399999999999807,-0.1165
0.32500000000000284,-0.1175
0.3260000000000076,-0.119
0.3269999999999982,-0.117
0.32800000000000296,-0.116
0.32900000000000773,-0.116
0.3299999999999983,-0.1205
0.33100000000000307,-0.1215
0.33200000000000784,-0.115
0.3329999999999984,-0.116
0.3340000000000032,-0.1165
0.33500000000000796,-0.1155
0.3359999999999985,-0.112
0.3370000000000033,-0.1095
0.33800000000000807,-0.111
0.33899999999999864,-0.1125
0.3400000000000034,-0.1095
0.3410000000000082,-0.1065
0.34199999999999875,-0.1125
0.3430000000000035,-0.1165
0.3440000000000083,-0.1125
0.34499999999999886,-0.1145
0.34600000000000364,-0.119
0.3470000000000084,-0.119
0.347999999999999,-0.119
0.34900000000000375,-0.1205
0.3500000000000085,-0.121
0.3509999999999991,-0.1175
0.35200000000000387,-0.1205
0.35300000000000864,-0.12
0.3539999999999992,-0.1175
0.355000000000004,-0.117
0.35600000000000875,-0.112
0.3569999999999993,-0.1145
0.3580000000000041,-0.109
0.35900000000000887,-0.1095
0.35999999999999943,-0.11
0.3610000000000042,-0.1075
0.362000000000009,-0.112
0.36299999999999955,-0.11
0.3640000000000043,-0.1085
0.3650000000000091,-0.108
0.36599999999999966,-0.1115
0.36700000000000443,-0.118
0.367999999999995,-0.1145
0.3689999999999998,-0.112
0.37000000000000455,-0.121
0.3709999999999951,-0.1175
0.3719999999999999,-0.1125
0.37300000000000466,-0.119
0.3739999999999952,-0.1165
0.375,-0.115
0.3760000000000048,-0.1145
0.37699999999999534,-0.1135
0.3780000000000001,-0.1085
0.3790000000000049,-0.1085
0.37999999999999545,-0.1075
0.3810000000000002,-0.1
0.382000000000005,-0.107
0.38299999999999557,-0.1085
0.38400000000000034,-0.106
0.3850000000000051,-0.1065
0.3859999999999957,-0.1065
0.38700000000000045,-0.11
0.38800000000000523,-0.1095
0.3889999999999958,-0.107
0.39000000000000057,-0.1085
0.39100000000000534,-0.1105
0.3919999999999959,-0.11
0.3930000000000007,-0.109
0.39400000000000546,-0.1095
0.394999999999996,-0.1075
0.3960000000000008,-0.1065
0.39700000000000557,-0.107
0.39799999999999613,-0.1005
0.3990000000000009,-0.101
0.4000000000000057,-0.102
0.40099999999999625,-0.097
0.402000000000001,-0.0995
0.4030000000000058,-0.0985
0.40399999999999636,-0.0935
0.40500000000000114,-0.099
0.4060000000000059,-0.102
0.4069999999999965,-0.096
0.40800000000000125,-0.1015
0.409000000000006,-0.103
0.4099999999999966,-0.101
0.41100000000000136,-0.1025
0.41200000000000614,-0.1005
0.4129999999999967,-0.101
0.4140000000000015,-0.098
0.41500000000000625,-0.0955
0.4159999999999968,-0.0935
0.4170000000000016,-0.0905
0.41800000000000637,-0.0885
0.41899999999999693,-0.087
0.4200000000000017,-0.085
0.4210000000000065,-0.081
0.42199999999999704,-0.08
0.4230000000000018,-0.0815
0.4240000000000066,-0.0825
0.42499999999999716,-0.0815
0.42600000000000193,-0.0835
0.4270000000000067,-0.083
0.42799999999999727,-0.082
0.42900000000000205,-0.0815
0.4300000000000068,-0.0795
0.4309999999999974,-0.0815
0.43200000000000216,-0.08
0.43300000000000693,-0.079
0.4339999999999975,-0.077
0.4350000000000023,-0.0755
0.43600000000000705,-0.072
0.4369999999999976,-0.0675
0.4380000000000024,-0.0675
0.43900000000000716,-0.065
0.4399999999999977,-0.063
0.4410000000000025,-0.0595
0.4420000000000073,-0.058
0.44299999999999784,-0.06
0.4440000000000026,-0.058
0.4450000000000074,-0.056
0.44599999999999795,-0.0585
0.44700000000000273,-0.056
0.4480000000000075,-0.0525
0.44899999999999807,-0.0545
0.45000000000000284,-0.0575
0.4510000000000076,-0.056
0.4519999999999982,-0.0515
0.45300000000000296,-0.0525
0.45400000000000773,-0.0485
0.4549999999999983,-0.0425
0.45600000000000307,-0.04
0.45700000000000784,-0.035
0.4579999999999984,-0.0365
0.4590000000000032,-0.0395
0.46000000000000796,-0.037
0.4609999999999985,-0.031
0.4620000000000033,-0.0275
0.46300000000000807,-0.0275
0.46399999999999864,-0.025
0.4650000000000034,-0.026
0.4660000000000082,-0.026
0.46699999999999875,-0.023
0.4680000000000035,-0.023
0.4690000000000083,-0.0215
0.46999999999999886,-0.02
0.47100000000000364,-0.022
0.4720000000000084,-0.019
0.472999999999999,-0.015
0.47400000000000375,-0.0105
0.4750000000000085,-0.009
0.4759999999999991,-0.0045
0.47700000000000387,0.001
0.47800000000000864,-0.0005
0.4789999999999992,0.0025
0.480000000000004,0.007
0.48100000000000875,0.008
0.4819999999999993,0.0095
0.4830000000000041,0.009
0.48400000000000887,0.0095
0.48499999999999943,0.013
0.4860000000000042,0.011
0.487000000000009,0.0135
0.48799999999999955,0.016
0.4890000000000043,0.0145
0.4900000000000091,0.0145
0.49099999999999966,0.0125
0.49200000000000443,0.016
0.492999999999995,0.0205
0.4939999999999998,0.0225
0.49500000000000455,0.023
0.4959999999999951,0.0255
0.4969999999999999,0.0275
0.49800000000000466,0.028
0.4989999999999952,0.0295
0.5,0.0305
0.5010000000000048,0.036
0.5019999999999953,0.044
0.5030000000000001,0.04
0.5040000000000049,0.035
0.5049999999999955,0.032
0.5060000000000002,0.03
0.507000000000005,0.0335
0.5079999999999956,0.035
0.5090000000000003,0.037
0.5100000000000051,0.0395
0.5109999999999957,0.039
0.5120000000000005,0.0365
0.5130000000000052,0.0375
0.5139999999999958,0.0405
0.5150000000000006,0.0405
0.5160000000000053,0.043
0.5169999999999959,0.044
0.5180000000000007,0.0435
0.5190000000000055,0.0435
0.519999999999996,0.047
0.5210000000000008,0.0475
0.5220000000000056,0.0395
0.5229999999999961,0.0405
0.5240000000000009,0.0385
0.5250000000000057,0.029
0.5259999999999962,0.028
0.527000000000001,0.028
0.5280000000000058,0.029
0.5289999999999964,0.025
0.5300000000000011,0.015
0.5310000000000059,0.012
0.5319999999999965,0.016
0.5330000000000013,0.012
0.534000000000006,0.009
0.5349999999999966,0.0135
0.5360000000000014,0.013
0.5370000000000061,0.0025
0.5379999999999967,0.002
0.5390000000000015,0.006
0.5400000000000063,-0.0005
0.5409999999999968,-0.0005
0.5420000000000016,-0.005
0.5430000000000064,-0.0095
0.5439999999999969,-0.01
0.5450000000000017,-0.013
0.5460000000000065,-0.0165
0.546999999999997,-0.0205
0.5480000000000018,-0.0235
0.5490000000000066,-0.026
0.5499999999999972,-0.028
0.5510000000000019,-0.034
0.5520000000000067,-0.0365
0.5529999999999973,-0.037
0.554000000000002,-0.04
0.5550000000000068,-0.041
0.5559999999999974,-0.0425
0.5570000000000022,-0.0415
0.5580000000000069,-0.0385
0.5589999999999975,-0.042
0.5600000000000023,-0.0485
0.561000000000007,-0.049
0.5619999999999976,-0.0495
0.5630000000000024,-0.049
0.5640000000000072,-0.0545
0.5649999999999977,-0.0575
0.5660000000000025,-0.0625
0.5670000000000073,-0.07
0.5679999999999978,-0.065
0.5690000000000026,-0.0665
0.5700000000000074,-0.0715
0.570999999999998,-0.073
0.5720000000000027,-0.076
0.5730000000000075,-0.076
0.5739999999999981,-0.076
0.5750000000000028,-0.078
0.5760000000000076,-0.076
0.5769999999999982,-0.0765
0.578000000000003,-0.0775
0.5790000000000077,-0.078
0.5799999999999983,-0.0775
0.5810000000000031,-0.0755
0.5820000000000078,-0.08
0.5829999999999984,-0.0795
0.5840000000000032,-0.0805
0.585000000000008,-0.085
0.5859999999999985,-0.084
0.5870000000000033,-0.0845
0.5880000000000081,-0.0875
0.5889999999999986,-0.088
0.5900000000000034,-0.087
0.5910000000000082,-0.0935
0.5919999999999987,-0.0915
0.5930000000000035,-0.085
0.5940000000000083,-0.0885
0.5949999999999989,-0.0885
0.5960000000000036,-0.092
0.5970000000000084,-0.0925
0.597999999999999,-0.086
0.5990000000000038,-0.0835
0.6000000000000085,-0.0805
0.6009999999999991,-0.086
0.6020000000000039,-0.0905
0.6030000000000086,-0.0855
0.6039999999999992,-0.086
0.605000000000004,-0.0885
0.6060000000000088,-0.0905
0.6069999999999993,-0.091
0.6080000000000041,-0.0905
0.6090000000000089,-0.0905
0.6099999999999994,-0.0915
0.6110000000000042,-0.0955
0.612000000000009,-0.097
0.6129999999999995,-0.095
0.6140000000000043,-0.095
0.6150000000000091,-0.0915
0.6159999999999997,-0.0845
0.6170000000000044,-0.0865
0.617999999999995,-0.0895
0.6189999999999998,-0.092
0.6200000000000045,-0.0875
0.6209999999999951,-0.0845
0.6219999999999999,-0.086
0.6230000000000047,-0.0835
0.6239999999999952,-0.087
0.625,-0.0885
0.6260000000000048,-0.089
0.6269999999999953,-0.088
0.6280000000000001,-0.0895
0.6290000000000049,-0.089
0.6299999999999955,-0.09
0.6310000000000002,-0.0965
0.632000000000005,-0.0925
0.6329999999999956,-0.091
0.6340000000000003,-0.0895
0.6350000000000051,-0.0885
0.6359999999999957,-0.0905
0.6370000000000005,-0.083
0.6380000000000052,-0.0835
0.6389999999999958,-0.089
0.6400000000000006,-0.0875
0.6410000000000053,-0.0825
0.6419999999999959,-0.0835
0.6430000000000007,-0.0835
0.6440000000000055,-0.0815
0.644999999999996,-0.086
0.6460000000000008,-0.0895
0.6470000000000056,-0.084
0.6479999999999961,-0.0855
0.6490000000000009,-0.0855
0.6500000000000057,-0.078
0.6509999999999962,-0.089
0.652000000000001,-0.086
0.6530000000000058,-0.0815
0.6539999999999964,-0.0855
0.6550000000000011,-0.084
0.6560000000000059,-0.0825
0.6569999999999965,-0.0755
0.6580000000000013,-0.0775
0.659000000000006,-0.081
0.6599999999999966,-0.077
0.6610000000000014,-0.078
0.6620000000000061,-0.076
0.6629999999999967,-0.0725
0.6640000000000015,-0.079
0.6650000000000063,-0.08
0.6659999999999968,-0.082
0.6670000000000016,-0.0865
0.6680000000000064,-0.082
0.6689999999999969,-0.0825
0.6700000000000017,-0.0875
0.6710000000000065,-0.088
0.671999999999997,-0.083
0.6730000000000018,-0.0845
0.6740000000000066,-0.0875
0.6749999999999972,-0.087
0.6760000000000019,-0.087
0.6770000000000067,-0.0835
0.6779999999999973,-0.0835
0.679000000000002,-0.079
0.6800000000000068,-0.077
0.6809999999999974,-0.0805
0.6820000000000022,-0.0805
0.6830000000000069,-0.084
0.6839999999999975,-0.08
0.6850000000000023,-0.075
0.686000000000007,-0.0825
0.6869999999999976,-0.088
0.6880000000000024,-0.0875
0.6890000000000072,-0.089
0.6899999999999977,-0.0865
0.6910000000000025,-0.085
0.6920000000000073,-0.088
0.6929999999999978,-0.0875
0.6940000000000026,-0.088
0.6950000000000074,-0.084
0.695999999999998,-0.0815
0.6970000000000027,-0.0825
0.6980000000000075,-0.078
0.6989999999999981,-0.078
0.7000000000000028,-0.0795
0.7010000000000076,-0.0815
0.7019999999999982,-0.0805
0.703000000000003,-0.08
0.7040000000000077,-0.0825
0.7049999999999983,-0.0825
0.7060000000000031,-0.083
0.7070000000000078,-0.0865
0.7079999999999984,-0.0885
0.7090000000000032,-0.087
0.710000000000008,-0.092
0.7109999999999985,-0.0935
0.7120000000000033,-0.0915
0.7130000000000081,-0.095
0.7139999999999986,-0.0895
0.7150000000000034,-0.0865
0.7160000000000082,-0.088
0.7169999999999987,-0.087
0.7180000000000035,-0.089
0.7190000000000083,-0.0865
0.7199999999999989,-0.0855
0.7210000000000036,-0.0805
0.7220000000000084,-0.08
0.722999999999999,-0.083
0.7240000000000038,-0.081
0.7250000000000085,-0.0845
0.7259999999999991,-0.089
0.7270000000000039,-0.0935
0.7280000000000086,-0.094
0.7289999999999992,-0.089
0.730000000000004,-0.089
0.7310000000000088,-0.091
0.7319999999999993,-0.0895
0.7330000000000041,-0.0915
0.7340000000000089,-0.09
0.7349999999999994,-0.0865
0.7360000000000042,-0.088
0.737000000000009,-0.086
0.7379999999999995,-0.085
0.7390000000000043,-0.0825
0.7400000000000091,-0.0825
0.7409999999999997,-0.085
0.7420000000000044,-0.0815
0.742999999999995,-0.0825
0.7439999999999998,-0.084
0.7450000000000045,-0.0835
0.7459999999999951,-0.0835
0.7469999999999999,-0.086
0.7480000000000047,-0.086
0.7489999999999952,-0.0835
0.75,-0.0855
0.7510000000000048,-0.086
0.7519999999999953,-0.0825
0.7530000000000001,-0.0825
0.7540000000000049,-0.0865
0.7549999999999955,-0.087
0.7560000000000002,-0.0855
0.757000000000005,-0.082
0.7579999999999956,-0.083
0.7590000000000003,-0.0845
0.7600000000000051,-0.082
0.7609999999999957,-0.078
0.7620000000000005,-0.0765
0.7630000000000052,-0.0775
0.7639999999999958,-0.0785
0.7650000000000006,-0.0825
0.7660000000000053,-0.0815
0.7669999999999959,-0.084
0.7680000000000007,-0.086
0.7690000000000055,-0.0845
0.769999999999996,-0.0855
0.7710000000000008,-0.081
0.7720000000000056,-0.084
0.7729999999999961,-0.081
0.7740000000000009,-0.079
0.7750000000000057,-0.083
0.7759999999999962,-0.0805
0.777000000000001,-0.0775
0.7780000000000058,-0.072
0.7789999999999964,-0.075
0.7800000000000011,-0.077
0.7810000000000059,-0.079
0.7819999999999965,-0.079
0.7830000000000013,-0.076
0.784000000000006,-0.08
0.7849999999999966,-0.081
0.7860000000000014,-0.087
0.7870000000000061,-0.0845
0.7879999999999967,-0.0845
0.7890000000000015,-0.087
0.7900000000000063,-0.079
0.7909999999999968,-0.082
0.7920000000000016,-0.0875
0.7930000000000064,-0.0875
0.7939999999999969,-0.0845
0.7950000000000017,-0.083
0.7960000000000065,-0.084
0.796999999999997,-0.08
0.7980000000000018,-0.0795
0.7990000000000066,-0.078
