timestamp,value
0.0,0.0585
0.0009999999999976694,0.0595
0.0019999999999988916,0.059
0.0030000000000001137,0.069
0.003999999999997783,0.0675
0.004999999999999005,0.055
0.006000000000000227,0.0625
0.006999999999997897,0.055
0.007999999999999119,0.0505
0.009000000000000341,0.052
0.00999999999999801,0.0455
0.010999999999999233,0.0595
0.012000000000000455,0.0555
0.012999999999998124,0.0455
0.013999999999999346,0.0505
0.015000000000000568,0.0565
0.015999999999998238,0.0515
0.01699999999999946,0.0485
0.018000000000000682,0.0535
0.01899999999999835,0.055
0.019999999999999574,0.051
0.021000000000000796,0.054
0.021999999999998465,0.059
0.022999999999999687,0.0555
0.02400000000000091,0.0625
0.02499999999999858,0.061
0.0259999999999998,0.0585
0.02699999999999747,0.0615
0.027999999999998693,0.062
0.028999999999999915,0.064
0.029999999999997584,0.0595
0.030999999999998806,0.061
0.03200000000000003,0.06
0.0329999999999977,0.0535
0.03399999999999892,0.0465
0.03500000000000014,0.051
0.03599999999999781,0.061
0.036999999999999034,0.0625
0.038000000000000256,0.0545
0.038999999999997925,0.0535
0.03999999999999915,0.0605
0.04100000000000037,0.057
0.04199999999999804,0.056
0.04299999999999926,0.057
0.04400000000000048,0.055
0.04499999999999815,0.0495
0.045999999999999375,0.0485
0.0470000000000006,0.0515
0.047999999999998266,0.0545
0.04899999999999949,0.0545
0.05000000000000071,0.0515
0.05099999999999838,0.054
0.0519999999999996,0.0495
0.053000000000000824,0.048
0.053999999999998494,0.047
0.054999999999999716,0.0535
0.05600000000000094,0.0565
0.05699999999999861,0.051
0.05799999999999983,0.055
0.0589999999999975,0.0565
0.05999999999999872,0.0615
0.06099999999999994,0.058
0.06199999999999761,0.058
0.06299999999999883,0.063
0.06400000000000006,0.0565
0.06499999999999773,0.0525
0.06599999999999895,0.0565
0.06700000000000017,0.0565
0.06799999999999784,0.053
0.06899999999999906,0.0555
0.07000000000000028,0.0535
0.07099999999999795,0.051
0.07199999999999918,0.0495
0.0730000000000004,0.0505
0.07399999999999807,0.0495
0.07499999999999929,0.0475
0.07600000000000051,0.055
0.07699999999999818,0.056
0.0779999999999994,0.06
0.07900000000000063,0.0625
0.0799999999999983,0.0625
0.08099999999999952,0.0685
0.08200000000000074,0.07
0.08299999999999841,0.074
0.08399999999999963,0.076
0.08500000000000085,0.077
0.08599999999999852,0.078
0.08699999999999974,0.074
0.08799999999999741,0.072
0.08899999999999864,0.068
0.08999999999999986,0.071
0.09099999999999753,0.0675
0.09199999999999875,0.055
0.09299999999999997,0.059
0.09399999999999764,0.0655
0.09499999999999886,0.059
0.09600000000000009,0.06
0.09699999999999775,0.0755
0.09799999999999898,0.083
0.0990000000000002,0.0855
0.09999999999999787,0.095
0.10099999999999909,0.094
0.10200000000000031,0.0945
0.10299999999999798,0.107
0.1039999999999992,0.1055
0.10500000000000043,0.1035
0.1059999999999981,0.103
0.10699999999999932,0.1035
0.10800000000000054,0.1025
0.10899999999999821,0.0995
0.10999999999999943,0.1025
0.11100000000000065,0.101
0.11199999999999832,0.101
0.11299999999999955,0.0975
0.11400000000000077,0.0965
0.11499999999999844,0.1045
0.11599999999999966,0.11
0.11700000000000088,0.111
0.11799999999999855,0.119
0.11899999999999977,0.124
0.11999999999999744,0.123
0.12099999999999866,0.125
0.12199999999999989,0.121
0.12299999999999756,0.1215
0.12399999999999878,0.129
0.125,0.1325
0.12599999999999767,0.132
0.1269999999999989,0.1325
0.1280000000000001,0.132
0.12899999999999778,0.1275
0.129999999999999,0.1285
0.13100000000000023,0.1295
0.1319999999999979,0.1285
0.13299999999999912,0.122
0.13400000000000034,0.1235
0.134999999999998,0.1335
0.13599999999999923,0.1345
0.13700000000000045,0.129
0.13799999999999812,0.131
0.13899999999999935,0.1385
0.14000000000000057,0.133
0.14099999999999824,0.1325
0.14199999999999946,0.131
0.14300000000000068,0.1285
0.14399999999999835,0.1295
0.14499999999999957,0.1245
0.1460000000000008,0.1165
0.14699999999999847,0.1095
0.1479999999999997,0.1125
0.1490000000000009,0.109
0.14999999999999858,0.103
0.1509999999999998,0.1065
0.15199999999999747,0.1085
0.1529999999999987,0.098
0.15399999999999991,0.09
0.15499999999999758,0.092
0.1559999999999988,0.09
0.15700000000000003,0.095
0.1579999999999977,0.0925
0.15899999999999892,0.092
0.16000000000000014,0.0965
0.1609999999999978,0.0855
0.16199999999999903,0.088
0.16300000000000026,0.092
0.16399999999999793,0.0825
0.16499999999999915,0.0855
0.16600000000000037,0.081
0.16699999999999804,0.074
0.16799999999999926,0.076
0.16900000000000048,0.07
0.16999999999999815,0.063
0.17099999999999937,0.058
0.1720000000000006,0.05
0.17299999999999827,0.0495
0.1739999999999995,0.051
0.1750000000000007,0.044
0.17599999999999838,0.0375
0.1769999999999996,0.033
0.17800000000000082,0.0435
0.1789999999999985,0.05
0.17999999999999972,0.0505
0.18100000000000094,0.0445
0.1819999999999986,0.0405
0.18299999999999983,0.0415
0.1839999999999975,0.0365
0.18499999999999872,0.0475
0.18599999999999994,0.0485
0.1869999999999976,0.0465
0.18799999999999883,0.044
0.18900000000000006,0.0355
0.18999999999999773,0.036
0.19099999999999895,0.035
0.19200000000000017,0.0345
0.19299999999999784,0.032
0.19399999999999906,0.038
0.19500000000000028,0.0415
0.19599999999999795,0.0355
0.19699999999999918,0.034
0.1980000000000004,0.0375
0.19899999999999807,0.044
0.1999999999999993,0.037
0.2010000000000005,0.0355
0.20199999999999818,0.0355
0.2029999999999994,0.0355
0.20400000000000063,0.0415
0.2049999999999983,0.0365
0.20599999999999952,0.0335
0.20700000000000074,0.0325
0.2079999999999984,0.033
0.20899999999999963,0.0285
0.21000000000000085,0.0245
0.21099999999999852,0.0165
0.21199999999999974,0.011
0.2129999999999974,0.0055
0.21399999999999864,-0.0035
0.21499999999999986,0.001
0.21599999999999753,0.004
0.21699999999999875,0.005
0.21799999999999997,0.009
0.21899999999999764,0.0165
0.21999999999999886,0.0205
0.22100000000000009,0.022
0.22199999999999775,0.0285
0.22299999999999898,0.0415
0.2240000000000002,0.053
0.22499999999999787,0.066
0.2259999999999991,0.075
0.2270000000000003,0.0885
0.22799999999999798,0.104
0.2289999999999992,0.106
0.23000000000000043,0.116
0.2309999999999981,0.1295
0.23199999999999932,0.151
0.23300000000000054,0.182
0.2339999999999982,0.2185
0.23499999999999943,0.253
0.23600000000000065,0.271
0.23699999999999832,0.294
0.23799999999999955,0.337
0.23900000000000077,0.391
0.23999999999999844,0.4565
0.24099999999999966,0.518
0.24200000000000088,0.5635
0.24299999999999855,0.6075
0.24399999999999977,0.654
0.24499999999999744,0.6795
0.24599999999999866,0.672
0.2469999999999999,0.6795
0.24799999999999756,0.68
0.24899999999999878,0.657
0.25,0.6065
0.25099999999999767,0.546
0.2519999999999989,0.498
0.2530000000000001,0.4445
0.2539999999999978,0.405
0.254999999999999,0.3675
0.2560000000000002,0.3385
0.2569999999999979,0.316
0.2579999999999991,0.281
0.25900000000000034,0.259
0.259999999999998,0.2395
0.26099999999999923,0.213
0.26200000000000045,0.191
0.2629999999999981,0.155
0.26399999999999935,0.126
0.26500000000000057,0.104
0.26599999999999824,0.0785
0.26699999999999946,0.0475
0.2680000000000007,0.011
0.26899999999999835,-0.018
0.2699999999999996,-0.047
0.2710000000000008,-0.062
0.27199999999999847,-0.074
0.2729999999999997,-0.0915
0.2740000000000009,-0.1065
0.2749999999999986,-0.108
0.2759999999999998,-0.103
0.27699999999999747,-0.0915
0.2779999999999987,-0.075
0.2789999999999999,-0.0635
0.2799999999999976,-0.055
0.2809999999999988,-0.051
0.28200000000000003,-0.0445
0.2829999999999977,-0.038
0.2839999999999989,-0.0365
0.28500000000000014,-0.0355
0.2859999999999978,-0.0245
0.28699999999999903,-0.0165
0.28800000000000026,-0.0175
0.2889999999999979,-0.0095
0.28999999999999915,-0.0095
0.29100000000000037,-0.0085
0.29199999999999804,-0.0035
0.29299999999999926,-0.005
0.2940000000000005,0.0015
0.29499999999999815,0.0085
0.2959999999999994,0.014
0.2970000000000006,0.016
0.29799999999999827,0.02
0.2989999999999995,0.0295
0.3000000000000007,0.0265
0.3009999999999984,0.0215
0.3019999999999996,0.0275
0.3030000000000008,0.025
0.3039999999999985,0.027
0.3049999999999997,0.034
0.30600000000000094,0.032
0.3069999999999986,0.037
0.30799999999999983,0.038
0.3089999999999975,0.033
0.3099999999999987,0.023
0.31099999999999994,0.023
0.3119999999999976,0.032
0.31299999999999883,0.0305
0.31400000000000006,0.0265
0.3149999999999977,0.025
0.31599999999999895,0.0315
0.31700000000000017,0.0315
0.31799999999999784,0.0345
0.31899999999999906,0.0395
0.3200000000000003,0.037
0.32099999999999795,0.041
0.3219999999999992,0.0375
0.3230000000000004,0.0395
0.32399999999999807,0.042
0.3249999999999993,0.0365
0.3260000000000005,0.0385
0.3269999999999982,0.037
0.3279999999999994,0.037
0.3290000000000006,0.037
0.3299999999999983,0.036
0.3309999999999995,0.0355
0.33200000000000074,0.0325
0.3329999999999984,0.0335
0.33399999999999963,0.0345
0.33500000000000085,0.0345
0.3359999999999985,0.032
0.33699999999999974,0.0265
0.3379999999999974,0.03
0.33899999999999864,0.038
0.33999999999999986,0.039
0.3409999999999975,0.0395
0.34199999999999875,0.0435
0.34299999999999997,0.046
0.34399999999999764,0.042
0.34499999999999886,0.047
0.3460000000000001,0.044
0.34699999999999775,0.0435
0.347999999999999,0.038
0.3490000000000002,0.037
0.34999999999999787,0.0515
0.3509999999999991,0.043
0.3520000000000003,0.039
0.352999999999998,0.0395
0.3539999999999992,0.0415
0.3550000000000004,0.0415
0.3559999999999981,0.0355
0.3569999999999993,0.037
0.35800000000000054,0.04
0.3589999999999982,0.0335
0.35999999999999943,0.029
0.36100000000000065,0.035
0.3619999999999983,0.0365
0.36299999999999955,0.0375
0.36400000000000077,0.0285
0.36499999999999844,0.0285
0.36599999999999966,0.037
0.3670000000000009,0.0505
0.36799999999999855,0.051
0.3689999999999998,0.043
0.36999999999999744,0.048
0.37099999999999866,0.0415
0.3719999999999999,0.0465
0.37299999999999756,0.054
0.3739999999999988,0.049
0.375,0.048
0.37599999999999767,0.052
0.3769999999999989,0.0475
0.3780000000000001,0.048
0.3789999999999978,0.053
0.379999999999999,0.0475
0.3810000000000002,0.048
0.3819999999999979,0.053
0.3829999999999991,0.0635
0.38400000000000034,0.0635
0.384999999999998,0.056
0.38599999999999923,0.0515
0.38700000000000045,0.044
0.3879999999999981,0.047
0.38899999999999935,0.051
0.39000000000000057,0.0515
0.39099999999999824,0.0565
0.39199999999999946,0.06
0.3930000000000007,0.0585
0.39399999999999835,0.053
0.3949999999999996,0.0525
0.3960000000000008,0.056
0.39699999999999847,0.0595
0.3979999999999997,0.057
0.3990000000000009,0.057
0.3999999999999986,0.065
0.4009999999999998,0.0665
0.40199999999999747,0.0685
0.4029999999999987,0.072
0.4039999999999999,0.0745
0.4049999999999976,0.0775
0.4059999999999988,0.0735
0.40700000000000003,0.0755
0.4079999999999977,0.0765
0.4089999999999989,0.0655
0.41000000000000014,0.0605
0.4109999999999978,0.065
0.41199999999999903,0.0665
0.41300000000000026,0.0665
0.4139999999999979,0.0655
0.41499999999999915,0.0675
0.41600000000000037,0.068
0.41699999999999804,0.0705
0.41799999999999926,0.074
0.4190000000000005,0.072
0.41999999999999815,0.078
0.4209999999999994,0.0775
0.4220000000000006,0.0815
0.42299999999999827,0.084
0.4239999999999995,0.0865
0.4250000000000007,0.0915
0.4259999999999984,0.0885
0.4269999999999996,0.089
0.4280000000000008,0.0855
0.4289999999999985,0.0855
0.4299999999999997,0.083
0.43100000000000094,0.081
0.4319999999999986,0.086
0.43299999999999983,0.084
0.4339999999999975,0.082
0.4349999999999987,0.0875
0.43599999999999994,0.0925
0.4369999999999976,0.0935
0.43799999999999883,0.0955
0.43900000000000006,0.1045
0.4399999999999977,0.0975
0.44099999999999895,0.0905
0.44200000000000017,0.0945
0.44299999999999784,0.0955
0.44399999999999906,0.1035
0.4450000000000003,0.105
0.44599999999999795,0.1005
0.4469999999999992,0.101
0.4480000000000004,0.116
0.44899999999999807,0.1205
0.4499999999999993,0.1135
0.4510000000000005,0.1185
0.4519999999999982,0.1215
0.4529999999999994,0.123
0.4540000000000006,0.1185
0.4549999999999983,0.114
0.4559999999999995,0.12
0.45700000000000074,0.12
0.4579999999999984,0.1235
0.45899999999999963,0.1335
0.46000000000000085,0.1355
0.4609999999999985,0.139
0.46199999999999974,0.1395
0.4629999999999974,0.139
0.46399999999999864,0.14
0.46499999999999986,0.139
0.4659999999999975,0.1435
0.46699999999999875,0.142
0.46799999999999997,0.143
0.46899999999999764,0.144
0.46999999999999886,0.1415
0.4710000000000001,0.1425
0.47199999999999775,0.142
0.472999999999999,0.143
0.4740000000000002,0.144
0.47499999999999787,0.1535
0.4759999999999991,0.166
0.4770000000000003,0.1635
0.477999999999998,0.1615
0.4789999999999992,0.1665
0.4800000000000004,0.168
0.4809999999999981,0.1665
0.4819999999999993,0.1655
0.48300000000000054,0.171
0.4839999999999982,0.172
0.48499999999999943,0.172
0.48600000000000065,0.1775
0.4869999999999983,0.1825
0.48799999999999955,0.18
0.48900000000000077,0.1745
0.48999999999999844,0.18
0.49099999999999966,0.176
0.4920000000000009,0.174
0.49299999999999855,0.1815
0.4939999999999998,0.18
0.49499999999999744,0.189
0.49599999999999866,0.1975
0.4969999999999999,0.1885
0.49799999999999756,0.1885
0.4989999999999988,0.196
0.5,0.1955
0.5009999999999977,0.1965
0.5019999999999989,0.195
0.5030000000000001,0.197
0.5039999999999978,0.198
0.504999999999999,0.197
0.5060000000000002,0.2015
0.5069999999999979,0.198
0.5079999999999991,0.194
0.5090000000000003,0.197
0.509999999999998,0.206
0.5109999999999992,0.207
0.5120000000000005,0.21
0.5129999999999981,0.2135
0.5139999999999993,0.2065
0.5150000000000006,0.2065
0.5159999999999982,0.205
0.5169999999999995,0.2035
0.5180000000000007,0.2045
0.5189999999999984,0.2095
0.5199999999999996,0.212
0.5210000000000008,0.2055
0.5219999999999985,0.203
0.5229999999999997,0.2045
0.5240000000000009,0.2045
0.5249999999999986,0.1995
0.5259999999999998,0.203
0.5269999999999975,0.2035
0.5279999999999987,0.196
0.5289999999999999,0.1885
0.5299999999999976,0.1845
0.5309999999999988,0.1805
0.532,0.1795
0.5329999999999977,0.1785
0.5339999999999989,0.17
0.5350000000000001,0.1705
0.5359999999999978,0.174
0.536999999999999,0.172
0.5380000000000003,0.1685
0.5389999999999979,0.1685
0.5399999999999991,0.1695
0.5410000000000004,0.1735
0.541999999999998,0.168
0.5429999999999993,0.1595
0.5440000000000005,0.1635
0.5449999999999982,0.158
0.5459999999999994,0.147
0.5470000000000006,0.1425
0.5479999999999983,0.147
0.5489999999999995,0.1365
0.5500000000000007,0.128
0.5509999999999984,0.131
0.5519999999999996,0.13
0.5530000000000008,0.127
0.5539999999999985,0.1155
0.5549999999999997,0.1205
0.5560000000000009,0.1145
0.5569999999999986,0.104
0.5579999999999998,0.113
0.5589999999999975,0.1125
0.5599999999999987,0.112
0.5609999999999999,0.109
0.5619999999999976,0.109
0.5629999999999988,0.1095
0.5640000000000001,0.1035
0.5649999999999977,0.0985
0.565999999999999,0.099
0.5670000000000002,0.1005
0.5679999999999978,0.093
0.5689999999999991,0.0835
0.5700000000000003,0.0865
0.570999999999998,0.0935
0.5719999999999992,0.0995
0.5730000000000004,0.098
0.5739999999999981,0.0865
0.5749999999999993,0.0845
0.5760000000000005,0.084
0.5769999999999982,0.084
0.5779999999999994,0.082
0.5790000000000006,0.0825
0.5799999999999983,0.083
0.5809999999999995,0.0785
0.5820000000000007,0.08
0.5829999999999984,0.0845
0.5839999999999996,0.0935
0.5850000000000009,0.091
0.5859999999999985,0.0855
0.5869999999999997,0.0775
0.5879999999999974,0.0705
0.5889999999999986,0.0755
0.5899999999999999,0.0785
0.5909999999999975,0.081
0.5919999999999987,0.08
0.593,0.08
0.5939999999999976,0.0745
0.5949999999999989,0.073
0.5960000000000001,0.08
0.5969999999999978,0.076
0.597999999999999,0.076
0.5990000000000002,0.0785
0.5999999999999979,0.0735
0.6009999999999991,0.0705
0.6020000000000003,0.0705
0.602999999999998,0.077
0.6039999999999992,0.08
0.6050000000000004,0.0765
0.6059999999999981,0.076
0.6069999999999993,0.0755
0.6080000000000005,0.075
0.6089999999999982,0.073
0.6099999999999994,0.074
0.6110000000000007,0.074
0.6119999999999983,0.0705
0.6129999999999995,0.0715
0.6140000000000008,0.0715
0.6149999999999984,0.0725
0.6159999999999997,0.0715
0.6170000000000009,0.066
0.6179999999999986,0.0655
0.6189999999999998,0.0645
0.6199999999999974,0.0655
0.6209999999999987,0.0635
0.6219999999999999,0.0715
0.6229999999999976,0.0805
0.6239999999999988,0.0715
0.625,0.073
0.6259999999999977,0.0715
0.6269999999999989,0.0685
0.6280000000000001,0.0715
0.6289999999999978,0.068
0.629999999999999,0.0645
0.6310000000000002,0.0675
0.6319999999999979,0.072
0.6329999999999991,0.062
0.6340000000000003,0.06
0.634999999999998,0.069
0.6359999999999992,0.068
0.6370000000000005,0.068
0.6379999999999981,0.072
0.6389999999999993,0.0705
0.6400000000000006,0.0705
0.6409999999999982,0.075
0.6419999999999995,0.0745
0.6430000000000007,0.077
0.6439999999999984,0.077
0.6449999999999996,0.0785
0.6460000000000008,0.076
0.6469999999999985,0.074
0.6479999999999997,0.0725
0.6490000000000009,0.069
0.6499999999999986,0.079
0.6509999999999998,0.077
0.6519999999999975,0.071
0.6529999999999987,0.0725
0.6539999999999999,0.0715
0.6549999999999976,0.0715
0.6559999999999988,0.071
0.657,0.0765
0.6579999999999977,0.0835
0.6589999999999989,0.077
0.6600000000000001,0.0685
0.6609999999999978,0.0635
0.661999999999999,0.063
0.6630000000000003,0.065
0.6639999999999979,0.0685
0.6649999999999991,0.07
0.6660000000000004,0.068
0.666999999999998,0.065
0.6679999999999993,0.063
0.6690000000000005,0.067
0.6699999999999982,0.0625
0.6709999999999994,0.066
0.6720000000000006,0.072
0.6729999999999983,0.0735
0.6739999999999995,0.083
0.6750000000000007,0.081
0.6759999999999984,0.0775
0.6769999999999996,0.077
0.6780000000000008,0.0705
0.6789999999999985,0.068
0.6799999999999997,0.076
0.6810000000000009,0.08
0.6819999999999986,0.0685
0.6829999999999998,0.075
0.6839999999999975,0.077
0.6849999999999987,0.063
0.6859999999999999,0.07
0.6869999999999976,0.064
0.6879999999999988,0.0625
0.6890000000000001,0.072
0.6899999999999977,0.0625
0.690999999999999,0.0595
0.6920000000000002,0.065
0.6929999999999978,0.0635
0.6939999999999991,0.0605
0.6950000000000003,0.065
0.695999999999998,0.0635
0.6969999999999992,0.057
0.6980000000000004,0.059
0.6989999999999981,0.0615
0.6999999999999993,0.065
0.7010000000000005,0.061
0.7019999999999982,0.057
0.7029999999999994,0.059
0.7040000000000006,0.06
0.7049999999999983,0.0645
0.7059999999999995,0.058
0.7070000000000007,0.0595
0.7079999999999984,0.067
0.7089999999999996,0.066
0.7100000000000009,0.061
0.7109999999999985,0.058
0.7119999999999997,0.06
0.7129999999999974,0.0595
0.7139999999999986,0.063
0.7149999999999999,0.0645
0.7159999999999975,0.066
0.7169999999999987,0.0635
0.718,0.0655
0.7189999999999976,0.066
0.7199999999999989,0.0605
0.7210000000000001,0.062
0.7219999999999978,0.065
0.722999999999999,0.0705
0.7240000000000002,0.072
0.7249999999999979,0.066
0.7259999999999991,0.0615
0.7270000000000003,0.059
0.727999999999998,0.0605
0.7289999999999992,0.0545
0.7300000000000004,0.0495
0.7309999999999981,0.0535
0.7319999999999993,0.0565
0.7330000000000005,0.057
0.7339999999999982,0.0515
0.7349999999999994,0.0525
0.7360000000000007,0.054
0.7369999999999983,0.0535
0.7379999999999995,0.056
0.7390000000000008,0.066
0.7399999999999984,0.065
0.7409999999999997,0.0555
0.7420000000000009,0.0585
0.7429999999999986,0.064
0.7439999999999998,0.0635
0.7449999999999974,0.0605
0.7459999999999987,0.0625
0.7469999999999999,0.0655
0.7479999999999976,0.0635
0.7489999999999988,0.0635
0.75,0.0645
0.7509999999999977,0.06
0.7519999999999989,0.06
0.7530000000000001,0.0535
0.7539999999999978,0.0575
0.754999999999999,0.068
0.7560000000000002,0.06
0.7569999999999979,0.0605
0.7579999999999991,0.0605
0.7590000000000003,0.0595
0.759999999999998,0.0635
0.7609999999999992,0.0605
0.7620000000000005,0.0585
0.7629999999999981,0.058
0.7639999999999993,0.06
0.7650000000000006,0.0635
0.7659999999999982,0.0625
0.7669999999999995,0.059
0.7680000000000007,0.0505
0.7689999999999984,0.0475
0.7699999999999996,0.0465
0.7710000000000008,0.046
0.7719999999999985,0.055
0.7729999999999997,0.0555
0.7740000000000009,0.0505
0.7749999999999986,0.0515
0.7759999999999998,0.057
0.7769999999999975,0.059
0.7779999999999987,0.052
0.7789999999999999,0.048
0.7799999999999976,0.056
0.7809999999999988,0.066
0.782,0.0705
0.7829999999999977,0.067
0.7839999999999989,0.06
0.7850000000000001,0.065
0.7859999999999978,0.073
0.786999999999999,0.0635
0.7880000000000003,0.063
0.7889999999999979,0.064
0.7899999999999991,0.052
0.7910000000000004,0.0565
0.791999999999998,0.06
0.7929999999999993,0.053
0.7940000000000005,0.0495
0.7949999999999982,0.0545
0.7959999999999994,0.062
0.7970000000000006,0.0575
0.7979999999999983,0.0555
0.7989999999999995,0.0565
