timestamp,value
0.0,0.093
0.001000000000000334,0.094
0.0019999999999997797,0.099
0.0030000000000001137,0.0965
0.004000000000000448,0.0955
0.004999999999999893,0.0945
0.006000000000000227,0.093
0.006999999999999673,0.0985
0.008000000000000007,0.0965
0.009000000000000341,0.0975
0.009999999999999787,0.0975
0.01100000000000012,0.0955
0.012000000000000455,0.099
0.0129999999999999,0.094
0.014000000000000234,0.092
0.01499999999999968,0.091
0.016000000000000014,0.09
0.017000000000000348,0.1
0.017999999999999794,0.094
0.019000000000000128,0.088
0.020000000000000462,0.0935
0.020999999999999908,0.092
0.02200000000000024,0.0915
0.022999999999999687,0.094
0.02400000000000002,0.0985
0.025000000000000355,0.104
0.0259999999999998,0.107
0.027000000000000135,0.1015
0.02800000000000047,0.098
0.028999999999999915,0.099
0.03000000000000025,0.095
0.030999999999999694,0.094
0.03200000000000003,0.092
0.03300000000000036,0.092
0.03399999999999981,0.0955
0.03500000000000014,0.0925
0.036000000000000476,0.097
0.03699999999999992,0.0955
0.038000000000000256,0.087
0.0389999999999997,0.092
0.040000000000000036,0.096
0.04100000000000037,0.1045
0.041999999999999815,0.1065
0.04300000000000015,0.1035
0.04400000000000048,0.1005
0.04499999999999993,0.096
0.04600000000000026,0.1
0.04699999999999971,0.104
0.04800000000000004,0.104
0.04900000000000038,0.101
0.04999999999999982,0.1025
0.051000000000000156,0.0985
0.05200000000000049,0.0935
0.052999999999999936,0.093
0.05400000000000027,0.092
0.054999999999999716,0.0925
0.05600000000000005,0.0885
0.057000000000000384,0.0885
0.05799999999999983,0.089
0.05900000000000016,0.0925
0.0600000000000005,0.1
0.06099999999999994,0.096
0.06200000000000028,0.0915
0.06299999999999972,0.0935
0.06400000000000006,0.0925
0.06500000000000039,0.0925
0.06599999999999984,0.0985
0.06700000000000017,0.098
0.0680000000000005,0.0955
0.06899999999999995,0.101
0.07000000000000028,0.099
0.07099999999999973,0.0965
0.07200000000000006,0.0985
0.0730000000000004,0.0965
0.07399999999999984,0.0955
0.07500000000000018,0.099
0.07600000000000051,0.0935
0.07699999999999996,0.089
0.07800000000000029,0.096
0.07899999999999974,0.096
0.08000000000000007,0.095
0.0810000000000004,0.0965
0.08199999999999985,0.0975
0.08300000000000018,0.098
0.08399999999999963,0.1
0.08499999999999996,0.109
0.0860000000000003,0.111
0.08699999999999974,0.1065
0.08800000000000008,0.1145
0.08900000000000041,0.118
0.08999999999999986,0.113
0.09100000000000019,0.114
0.09199999999999964,0.106
0.09299999999999997,0.1085
0.0940000000000003,0.1145
0.09499999999999975,0.1135
0.09600000000000009,0.1175
0.09700000000000042,0.116
0.09799999999999986,0.1115
0.0990000000000002,0.12
0.09999999999999964,0.1195
0.10099999999999998,0.1115
0.10200000000000031,0.1165
0.10299999999999976,0.1205
0.10400000000000009,0.1235
0.10500000000000043,0.1315
0.10599999999999987,0.1415
0.1070000000000002,0.138
0.10799999999999965,0.1375
0.10899999999999999,0.1425
0.11000000000000032,0.1335
0.11099999999999977,0.133
0.1120000000000001,0.138
0.11300000000000043,0.1325
0.11399999999999988,0.124
0.11500000000000021,0.126
0.11599999999999966,0.1345
0.11699999999999999,0.1355
0.11800000000000033,0.136
0.11899999999999977,0.142
0.1200000000000001,0.144
0.12100000000000044,0.147
0.12199999999999989,0.149
0.12300000000000022,0.1535
0.12399999999999967,0.1615
0.125,0.166
0.12600000000000033,0.1715
0.12699999999999978,0.176
0.1280000000000001,0.171
0.12900000000000045,0.1705
0.1299999999999999,0.177
0.13100000000000023,0.175
0.13199999999999967,0.1755
0.133,0.1765
0.13400000000000034,0.174
0.1349999999999998,0.174
0.13600000000000012,0.172
0.13700000000000045,0.1695
0.1379999999999999,0.165
0.13900000000000023,0.1675
0.13999999999999968,0.1685
0.14100000000000001,0.169
0.14200000000000035,0.172
0.1429999999999998,0.177
0.14400000000000013,0.181
0.14500000000000046,0.179
0.1459999999999999,0.1845
0.14700000000000024,0.187
0.1479999999999997,0.1815
0.14900000000000002,0.176
0.15000000000000036,0.177
0.1509999999999998,0.178
0.15200000000000014,0.1695
0.15300000000000047,0.1605
0.15399999999999991,0.155
0.15500000000000025,0.1575
0.1559999999999997,0.156
0.15700000000000003,0.1505
0.15800000000000036,0.148
0.1589999999999998,0.1435
0.16000000000000014,0.1395
0.16100000000000048,0.1325
0.16199999999999992,0.1325
0.16300000000000026,0.1355
0.1639999999999997,0.1345
0.16500000000000004,0.129
0.16600000000000037,0.1295
0.16699999999999982,0.1325
0.16800000000000015,0.131
0.16900000000000048,0.138
0.16999999999999993,0.1345
0.17100000000000026,0.1245
0.1719999999999997,0.117
0.17300000000000004,0.112
0.17400000000000038,0.113
0.17499999999999982,0.108
0.17600000000000016,0.1065
0.1770000000000005,0.0995
0.17799999999999994,0.0955
0.17900000000000027,0.0955
0.17999999999999972,0.0915
0.18100000000000005,0.095
0.18200000000000038,0.093
0.18299999999999983,0.094
0.18400000000000016,0.0965
0.1850000000000005,0.096
0.18599999999999994,0.0915
0.18700000000000028,0.0885
0.18799999999999972,0.0955
0.18900000000000006,0.09
0.1900000000000004,0.088
0.19099999999999984,0.0895
0.19200000000000017,0.087
0.1930000000000005,0.082
0.19399999999999995,0.0715
0.19500000000000028,0.0725
0.19599999999999973,0.073
0.19700000000000006,0.0725
0.1980000000000004,0.083
0.19899999999999984,0.079
0.20000000000000018,0.073
0.2010000000000005,0.0765
0.20199999999999996,0.0755
0.2030000000000003,0.0825
0.20399999999999974,0.079
0.20500000000000007,0.0815
0.2060000000000004,0.086
0.20699999999999985,0.0755
0.20800000000000018,0.083
0.20899999999999963,0.0865
0.20999999999999996,0.0785
0.2110000000000003,0.075
0.21199999999999974,0.0735
0.21300000000000008,0.077
0.2140000000000004,0.0775
0.21499999999999986,0.0695
0.2160000000000002,0.0625
0.21699999999999964,0.0595
0.21799999999999997,0.058
0.2190000000000003,0.0565
0.21999999999999975,0.051
0.22100000000000009,0.0505
0.22200000000000042,0.0545
0.22299999999999986,0.0575
0.2240000000000002,0.0615
0.22499999999999964,0.063
0.22599999999999998,0.071
0.2270000000000003,0.0745
0.22799999999999976,0.074
0.2290000000000001,0.0795
0.23000000000000043,0.0895
0.23099999999999987,0.1035
0.2320000000000002,0.111
0.23299999999999965,0.12
0.23399999999999999,0.129
0.23500000000000032,0.139
0.23599999999999977,0.1525
0.2370000000000001,0.1605
0.23800000000000043,0.173
0.23899999999999988,0.1995
0.2400000000000002,0.2345
0.24099999999999966,0.267
0.242,0.2985
0.24300000000000033,0.3255
0.24399999999999977,0.349
0.2450000000000001,0.3845
0.24600000000000044,0.435
0.2469999999999999,0.51
0.24800000000000022,0.565
0.24899999999999967,0.602
0.25,0.6385
0.25100000000000033,0.677
0.2519999999999998,0.707
0.2530000000000001,0.6955
0.25400000000000045,0.699
0.2549999999999999,0.695
0.2560000000000002,0.664
0.2569999999999997,0.635
0.258,0.585
0.25900000000000034,0.526
0.2599999999999998,0.484
0.2610000000000001,0.449
0.26200000000000045,0.4065
0.2629999999999999,0.377
0.26400000000000023,0.3655
0.2649999999999997,0.3385
0.266,0.2995
0.26700000000000035,0.2835
0.2679999999999998,0.2655
0.26900000000000013,0.245
0.27000000000000046,0.222
0.2709999999999999,0.1885
0.27200000000000024,0.162
0.2729999999999997,0.146
0.274,0.1185
0.27500000000000036,0.0825
0.2759999999999998,0.0605
0.27700000000000014,0.033
0.27800000000000047,0.0185
0.2789999999999999,0.0165
0.28000000000000025,0.013
0.2809999999999997,0.018
0.28200000000000003,0.0105
0.28300000000000036,0.0075
0.2839999999999998,0.0095
0.28500000000000014,0.0105
0.2860000000000005,0.0185
0.2869999999999999,0.0225
0.28800000000000026,0.027
0.2889999999999997,0.033
0.29000000000000004,0.0355
0.29100000000000037,0.031
0.2919999999999998,0.0265
0.29300000000000015,0.0355
0.2940000000000005,0.0495
0.29499999999999993,0.0495
0.29600000000000026,0.0545
0.2969999999999997,0.0575
0.29800000000000004,0.052
0.2990000000000004,0.0565
0.2999999999999998,0.0595
0.30100000000000016,0.0565
0.3020000000000005,0.056
0.30299999999999994,0.0635
0.30400000000000027,0.066
0.3049999999999997,0.064
0.30600000000000005,0.068
0.3070000000000004,0.07
0.30799999999999983,0.0695
0.30900000000000016,0.071
0.3100000000000005,0.0725
0.31099999999999994,0.069
0.3120000000000003,0.074
0.3129999999999997,0.078
0.31400000000000006,0.073
0.3150000000000004,0.0735
0.31599999999999984,0.08
0.31700000000000017,0.0815
0.3180000000000005,0.0785
0.31899999999999995,0.0735
0.3200000000000003,0.068
0.32099999999999973,0.073
0.32200000000000006,0.0765
0.3230000000000004,0.085
0.32399999999999984,0.0855
0.3250000000000002,0.079
0.3260000000000005,0.076
0.32699999999999996,0.076
0.3280000000000003,0.078
0.32899999999999974,0.075
0.33000000000000007,0.0745
0.3310000000000004,0.0765
0.33199999999999985,0.0795
0.3330000000000002,0.0745
0.3340000000000005,0.0725
0.33499999999999996,0.0775
0.3360000000000003,0.078
0.33699999999999974,0.0695
0.3380000000000001,0.0695
0.3390000000000004,0.0745
0.33999999999999986,0.071
0.3410000000000002,0.0695
0.34199999999999964,0.0715
0.34299999999999997,0.0745
0.3440000000000003,0.0705
0.34499999999999975,0.067
0.3460000000000001,0.0745
0.3470000000000004,0.082
0.34799999999999986,0.076
0.3490000000000002,0.0715
0.34999999999999964,0.0745
0.351,0.078
0.3520000000000003,0.0785
0.35299999999999976,0.0765
0.3540000000000001,0.0765
0.3550000000000004,0.0735
0.35599999999999987,0.0725
0.3570000000000002,0.0665
0.35799999999999965,0.065
0.359,0.069
0.3600000000000003,0.069
0.36099999999999977,0.0775
0.3620000000000001,0.0805
0.36300000000000043,0.067
0.3639999999999999,0.072
0.3650000000000002,0.0835
0.36599999999999966,0.0775
0.367,0.076
0.3680000000000003,0.075
0.3689999999999998,0.071
0.3700000000000001,0.069
0.37100000000000044,0.07
0.3719999999999999,0.072
0.3730000000000002,0.0735
0.37399999999999967,0.071
0.375,0.067
0.37600000000000033,0.0655
0.3769999999999998,0.061
0.3780000000000001,0.0655
0.37900000000000045,0.0695
0.3799999999999999,0.0675
0.3810000000000002,0.065
0.3819999999999997,0.0615
0.383,0.0685
0.38400000000000034,0.0735
0.3849999999999998,0.0715
0.3860000000000001,0.071
0.38700000000000045,0.0705
0.3879999999999999,0.0685
0.38900000000000023,0.07
0.3899999999999997,0.0715
0.391,0.0725
0.39200000000000035,0.0755
0.3929999999999998,0.0675
0.39400000000000013,0.0685
0.39500000000000046,0.0755
0.3959999999999999,0.0725
0.39700000000000024,0.064
0.3979999999999997,0.066
0.399,0.0695
0.40000000000000036,0.068
0.4009999999999998,0.07
0.40200000000000014,0.068
0.40300000000000047,0.0755
0.4039999999999999,0.076
0.40500000000000025,0.074
0.4059999999999997,0.077
0.40700000000000003,0.078
0.40800000000000036,0.0785
0.4089999999999998,0.083
0.41000000000000014,0.0855
0.4110000000000005,0.077
0.4119999999999999,0.073
0.41300000000000026,0.0775
0.4139999999999997,0.0795
0.41500000000000004,0.0805
0.41600000000000037,0.079
0.4169999999999998,0.0785
0.41800000000000015,0.0855
0.4190000000000005,0.0865
0.41999999999999993,0.0825
0.42100000000000026,0.081
0.4219999999999997,0.0885
0.42300000000000004,0.09
0.4240000000000004,0.0875
0.4249999999999998,0.092
0.42600000000000016,0.0935
0.4270000000000005,0.0945
0.42799999999999994,0.0905
0.42900000000000027,0.086
0.4299999999999997,0.094
0.43100000000000005,0.096
0.4320000000000004,0.092
0.43299999999999983,0.091
0.43400000000000016,0.0905
0.4350000000000005,0.0995
0.43599999999999994,0.1
0.4370000000000003,0.0965
0.4379999999999997,0.1015
0.43900000000000006,0.1015
0.4400000000000004,0.1025
0.44099999999999984,0.1
0.44200000000000017,0.103
0.4430000000000005,0.112
0.44399999999999995,0.1115
0.4450000000000003,0.1165
0.44599999999999973,0.117
0.44700000000000006,0.1115
0.4480000000000004,0.1145
0.44899999999999984,0.1125
0.4500000000000002,0.113
0.4510000000000005,0.1235
0.45199999999999996,0.1225
0.4530000000000003,0.1215
0.45399999999999974,0.133
0.45500000000000007,0.1295
0.4560000000000004,0.1275
0.45699999999999985,0.132
0.4580000000000002,0.1285
0.4590000000000005,0.1295
0.45999999999999996,0.1345
0.4610000000000003,0.137
0.46199999999999974,0.1385
0.4630000000000001,0.1415
0.4640000000000004,0.1415
0.46499999999999986,0.1425
0.4660000000000002,0.149
0.46699999999999964,0.1555
0.46799999999999997,0.1535
0.4690000000000003,0.157
0.46999999999999975,0.165
0.4710000000000001,0.16
0.4720000000000004,0.1555
0.47299999999999986,0.16
0.4740000000000002,0.164
0.47499999999999964,0.1655
0.476,0.167
0.4770000000000003,0.165
0.47799999999999976,0.1665
0.4790000000000001,0.1735
0.4800000000000004,0.173
0.48099999999999987,0.1735
0.4820000000000002,0.1835
0.48299999999999965,0.184
0.484,0.179
0.4850000000000003,0.185
0.48599999999999977,0.191
0.4870000000000001,0.1915
0.48800000000000043,0.192
0.4889999999999999,0.1945
0.4900000000000002,0.196
0.49099999999999966,0.1985
0.492,0.1965
0.4930000000000003,0.1985
0.4939999999999998,0.2
0.4950000000000001,0.2
0.49600000000000044,0.2015
0.4969999999999999,0.2
0.4980000000000002,0.2055
0.49899999999999967,0.2085
0.5,0.2125
0.5010000000000003,0.2135
0.5019999999999998,0.2125
0.5030000000000001,0.216
0.5040000000000004,0.22
0.5049999999999999,0.2155
0.5060000000000002,0.2175
0.5069999999999997,0.224
0.508,0.2205
0.5090000000000003,0.2275
0.5099999999999998,0.2235
0.5110000000000001,0.224
0.5120000000000005,0.225
0.5129999999999999,0.219
0.5140000000000002,0.2205
0.5149999999999997,0.2205
0.516,0.221
0.5170000000000003,0.221
0.5179999999999998,0.2235
0.5190000000000001,0.2195
0.5200000000000005,0.217
0.5209999999999999,0.2225
0.5220000000000002,0.2275
0.5229999999999997,0.228
0.524,0.2265
0.5250000000000004,0.2285
0.5259999999999998,0.2325
0.5270000000000001,0.2305
0.5280000000000005,0.2265
0.5289999999999999,0.2255
0.5300000000000002,0.2185
0.5309999999999997,0.2215
0.532,0.222
0.5330000000000004,0.213
0.5339999999999998,0.212
0.5350000000000001,0.2065
0.5360000000000005,0.205
0.5369999999999999,0.207
0.5380000000000003,0.2025
0.5389999999999997,0.203
0.54,0.202
0.5410000000000004,0.2005
0.5419999999999998,0.204
0.5430000000000001,0.203
0.5440000000000005,0.202
0.5449999999999999,0.1995
0.5460000000000003,0.195
0.5469999999999997,0.196
0.548,0.185
0.5490000000000004,0.1755
0.5499999999999998,0.172
0.5510000000000002,0.1665
0.5520000000000005,0.1675
0.5529999999999999,0.169
0.5540000000000003,0.1635
0.5549999999999997,0.1565
0.556,0.154
0.5570000000000004,0.149
0.5579999999999998,0.1505
0.5590000000000002,0.147
0.5600000000000005,0.1405
0.5609999999999999,0.147
0.5620000000000003,0.152
0.5629999999999997,0.146
0.5640000000000001,0.1385
0.5650000000000004,0.135
0.5659999999999998,0.132
0.5670000000000002,0.126
0.5680000000000005,0.124
0.569,0.1305
0.5700000000000003,0.1275
0.5709999999999997,0.122
0.5720000000000001,0.1205
0.5730000000000004,0.116
0.5739999999999998,0.114
0.5750000000000002,0.1105
0.5760000000000005,0.109
0.577,0.107
0.5780000000000003,0.11
0.5789999999999997,0.11
0.5800000000000001,0.1035
0.5810000000000004,0.0995
0.5819999999999999,0.101
0.5830000000000002,0.11
0.5840000000000005,0.106
0.585,0.1025
0.5860000000000003,0.1065
0.5869999999999997,0.1045
0.5880000000000001,0.105
0.5890000000000004,0.104
0.5899999999999999,0.1025
0.5910000000000002,0.102
0.5919999999999996,0.104
0.593,0.105
0.5940000000000003,0.103
0.5949999999999998,0.103
0.5960000000000001,0.1035
0.5970000000000004,0.101
0.5979999999999999,0.0995
0.5990000000000002,0.1015
0.5999999999999996,0.106
0.601,0.111
0.6020000000000003,0.1065
0.6029999999999998,0.0945
0.6040000000000001,0.096
0.6050000000000004,0.1025
0.6059999999999999,0.1
0.6070000000000002,0.098
0.6079999999999997,0.098
0.609,0.1
0.6100000000000003,0.0955
0.6109999999999998,0.0915
0.6120000000000001,0.093
0.6130000000000004,0.0965
0.6139999999999999,0.095
0.6150000000000002,0.0935
0.6159999999999997,0.0915
0.617,0.0885
0.6180000000000003,0.092
0.6189999999999998,0.093
0.6200000000000001,0.099
0.6210000000000004,0.099
0.6219999999999999,0.096
0.6230000000000002,0.1
0.6239999999999997,0.0965
0.625,0.095
0.6260000000000003,0.0945
0.6269999999999998,0.0945
0.6280000000000001,0.09
0.6290000000000004,0.094
0.6299999999999999,0.0965
0.6310000000000002,0.085
0.6319999999999997,0.088
0.633,0.0915
0.6340000000000003,0.0885
0.6349999999999998,0.089
0.6360000000000001,0.093
0.6370000000000005,0.094
0.6379999999999999,0.096
0.6390000000000002,0.0955
0.6399999999999997,0.09
0.641,0.0905
0.6420000000000003,0.094
0.6429999999999998,0.0965
0.6440000000000001,0.097
0.6450000000000005,0.096
0.6459999999999999,0.093
0.6470000000000002,0.0945
0.6479999999999997,0.101
0.649,0.1025
0.6500000000000004,0.097
0.6509999999999998,0.0965
0.6520000000000001,0.0965
0.6530000000000005,0.09
0.6539999999999999,0.0945
0.6550000000000002,0.095
0.6559999999999997,0.0915
0.657,0.097
0.6580000000000004,0.096
0.6589999999999998,0.0915
0.6600000000000001,0.0965
0.6610000000000005,0.101
0.6619999999999999,0.0955
0.6630000000000003,0.096
0.6639999999999997,0.098
0.665,0.0975
0.6660000000000004,0.092
0.6669999999999998,0.097
0.6680000000000001,0.1055
0.6690000000000005,0.104
0.6699999999999999,0.1085
0.6710000000000003,0.104
0.6719999999999997,0.099
0.673,0.104
0.6740000000000004,0.1
0.6749999999999998,0.0965
0.6760000000000002,0.098
0.6770000000000005,0.098
0.6779999999999999,0.098
0.6790000000000003,0.0965
0.6799999999999997,0.095
0.681,0.0945
0.6820000000000004,0.096
0.6829999999999998,0.099
0.6840000000000002,0.0955
0.6850000000000005,0.097
0.6859999999999999,0.1015
0.6870000000000003,0.093
0.6879999999999997,0.089
0.6890000000000001,0.089
0.6900000000000004,0.089
0.6909999999999998,0.0965
0.6920000000000002,0.0945
0.6930000000000005,0.0895
0.694,0.0905
0.6950000000000003,0.0955
0.6959999999999997,0.0915
0.6970000000000001,0.088
0.6980000000000004,0.0895
0.6989999999999998,0.0845
0.7000000000000002,0.0935
0.7010000000000005,0.0985
0.702,0.0985
0.7030000000000003,0.101
0.7039999999999997,0.0955
0.7050000000000001,0.091
0.7060000000000004,0.091
0.7069999999999999,0.0935
0.7080000000000002,0.097
0.7090000000000005,0.0935
0.71,0.09
0.7110000000000003,0.0915
0.7119999999999997,0.089
0.7130000000000001,0.0765
0.7140000000000004,0.072
0.7149999999999999,0.081
0.7160000000000002,0.0785
0.7170000000000005,0.082
0.718,0.0855
0.7190000000000003,0.079
0.7199999999999998,0.0765
0.7210000000000001,0.082
0.7220000000000004,0.0905
0.7229999999999999,0.0915
0.7240000000000002,0.087
0.7249999999999996,0.084
0.726,0.085
0.7270000000000003,0.082
0.7279999999999998,0.086
0.7290000000000001,0.0855
0.7300000000000004,0.086
0.7309999999999999,0.0925
0.7320000000000002,0.086
0.7329999999999997,0.082
0.734,0.079
0.7350000000000003,0.0765
0.7359999999999998,0.082
0.7370000000000001,0.0845
0.7380000000000004,0.083
0.7389999999999999,0.085
0.7400000000000002,0.0875
0.7409999999999997,0.0865
0.742,0.091
0.7430000000000003,0.0925
0.7439999999999998,0.0885
0.7450000000000001,0.086
0.7460000000000004,0.0825
0.7469999999999999,0.0905
0.7480000000000002,0.092
0.7489999999999997,0.0895
0.75,0.0895
0.7510000000000003,0.0905
0.7519999999999998,0.0905
0.7530000000000001,0.089
0.7540000000000004,0.0935
0.7549999999999999,0.0885
0.7560000000000002,0.0855
0.7569999999999997,0.0875
0.758,0.093
0.7590000000000003,0.0915
0.7599999999999998,0.0815
0.7610000000000001,0.0825
0.7620000000000005,0.085
0.7629999999999999,0.0875
0.7640000000000002,0.089
0.7649999999999997,0.0935
0.766,0.0945
0.7670000000000003,0.089
0.7679999999999998,0.09
0.7690000000000001,0.093
0.7700000000000005,0.09
0.7709999999999999,0.086
0.7720000000000002,0.0865
0.7729999999999997,0.088
0.774,0.0875
0.7750000000000004,0.0865
0.7759999999999998,0.0885
0.7770000000000001,0.0935
0.7780000000000005,0.0915
0.7789999999999999,0.0865
0.7800000000000002,0.089
0.7809999999999997,0.0995
0.782,0.104
0.7830000000000004,0.1015
0.7839999999999998,0.098
0.7850000000000001,0.0975
0.7860000000000005,0.098
0.7869999999999999,0.099
0.7880000000000003,0.099
0.7889999999999997,0.1005
0.79,0.095
0.7910000000000004,0.084
0.7919999999999998,0.0795
0.7930000000000001,0.077
0.7940000000000005,0.0855
0.7949999999999999,0.0895
0.7960000000000003,0.084
0.7969999999999997,0.08
0.798,0.0835
0.7990000000000004,0.084
