timestamp,value
0.0,0.0525
0.0009999999999976694,0.05
0.0019999999999988916,0.049
0.002999999999996561,0.047
0.003999999999997783,0.0565
0.004999999999999005,0.048
0.005999999999996675,0.045
0.006999999999997897,0.0495
0.007999999999999119,0.0505
0.008999999999996788,0.051
0.00999999999999801,0.048
0.010999999999999233,0.0505
0.011999999999996902,0.0545
0.012999999999998124,0.054
0.013999999999999346,0.0555
0.014999999999997016,0.051
0.015999999999998238,0.047
0.01699999999999946,0.0545
0.01799999999999713,0.0545
0.01899999999999835,0.0545
0.019999999999999574,0.06
0.020999999999997243,0.058
0.021999999999998465,0.0535
0.022999999999999687,0.0555
0.023999999999997357,0.0545
0.02499999999999858,0.0495
0.0259999999999998,0.048
0.02699999999999747,0.0525
0.027999999999998693,0.0515
0.028999999999999915,0.049
0.029999999999997584,0.0525
0.030999999999998806,0.0495
0.03200000000000003,0.0435
0.0329999999999977,0.045
0.03399999999999892,0.0545
0.03499999999999659,0.054
0.03599999999999781,0.054
0.036999999999999034,0.055
0.0379999999999967,0.0485
0.038999999999997925,0.051
0.03999999999999915,0.052
0.04099999999999682,0.0515
0.04199999999999804,0.0495
0.04299999999999926,0.0495
0.04399999999999693,0.0525
0.04499999999999815,0.0525
0.045999999999999375,0.0455
0.046999999999997044,0.045
0.047999999999998266,0.045
0.04899999999999949,0.0415
0.04999999999999716,0.0455
0.05099999999999838,0.0425
0.0519999999999996,0.044
0.05299999999999727,0.048
0.053999999999998494,0.0485
0.054999999999999716,0.051
0.055999999999997385,0.05
0.05699999999999861,0.049
0.05799999999999983,0.053
0.0589999999999975,0.0515
0.05999999999999872,0.046
0.06099999999999994,0.0445
0.06199999999999761,0.0425
0.06299999999999883,0.043
0.06400000000000006,0.045
0.06499999999999773,0.0395
0.06599999999999895,0.0375
0.06699999999999662,0.04
0.06799999999999784,0.0395
0.06899999999999906,0.035
0.06999999999999673,0.04
0.07099999999999795,0.0495
0.07199999999999918,0.0505
0.07299999999999685,0.056
0.07399999999999807,0.057
0.07499999999999929,0.0575
0.07599999999999696,0.0535
0.07699999999999818,0.0505
0.0779999999999994,0.052
0.07899999999999707,0.0525
0.0799999999999983,0.054
0.08099999999999952,0.0525
0.08199999999999719,0.0525
0.08299999999999841,0.048
0.08399999999999963,0.048
0.0849999999999973,0.056
0.08599999999999852,0.0585
0.08699999999999974,0.0575
0.08799999999999741,0.059
0.08899999999999864,0.064
0.08999999999999986,0.068
0.09099999999999753,0.0675
0.09199999999999875,0.0685
0.09299999999999997,0.068
0.09399999999999764,0.0655
0.09499999999999886,0.0645
0.09599999999999653,0.074
0.09699999999999775,0.0805
0.09799999999999898,0.079
0.09899999999999665,0.085
0.09999999999999787,0.0875
0.10099999999999909,0.0905
0.10199999999999676,0.0905
0.10299999999999798,0.09
0.1039999999999992,0.0885
0.10499999999999687,0.088
0.1059999999999981,0.0925
0.10699999999999932,0.0875
0.10799999999999699,0.086
0.10899999999999821,0.0805
0.10999999999999943,0.073
0.1109999999999971,0.079
0.11199999999999832,0.0795
0.11299999999999955,0.075
0.11399999999999721,0.0835
0.11499999999999844,0.0875
0.11599999999999966,0.0865
0.11699999999999733,0.091
0.11799999999999855,0.095
0.11899999999999977,0.0965
0.11999999999999744,0.0935
0.12099999999999866,0.1
0.12199999999999989,0.109
0.12299999999999756,0.115
0.12399999999999878,0.116
0.125,0.1085
0.12599999999999767,0.107
0.1269999999999989,0.1085
0.12799999999999656,0.1105
0.12899999999999778,0.1175
0.129999999999999,0.1205
0.13099999999999667,0.1215
0.1319999999999979,0.13
0.13299999999999912,0.132
0.1339999999999968,0.1375
0.134999999999998,0.146
0.13599999999999923,0.133
0.1369999999999969,0.128
0.13799999999999812,0.1355
0.13899999999999935,0.1375
0.13999999999999702,0.136
0.14099999999999824,0.1335
0.14199999999999946,0.132
0.14299999999999713,0.132
0.14399999999999835,0.128
0.14499999999999957,0.13
0.14599999999999724,0.1315
0.14699999999999847,0.128
0.1479999999999997,0.125
0.14899999999999736,0.122
0.14999999999999858,0.1235
0.1509999999999998,0.1095
0.15199999999999747,0.1025
0.1529999999999987,0.1025
0.15399999999999991,0.103
0.15499999999999758,0.1005
0.1559999999999988,0.097
0.15700000000000003,0.102
0.1579999999999977,0.1065
0.15899999999999892,0.113
0.1599999999999966,0.112
0.1609999999999978,0.1085
0.16199999999999903,0.1025
0.1629999999999967,0.1025
0.16399999999999793,0.098
0.16499999999999915,0.0885
0.16599999999999682,0.0905
0.16699999999999804,0.0805
0.16799999999999926,0.082
0.16899999999999693,0.0875
0.16999999999999815,0.0825
0.17099999999999937,0.0825
0.17199999999999704,0.0755
0.17299999999999827,0.0665
0.1739999999999995,0.0615
0.17499999999999716,0.0655
0.17599999999999838,0.066
0.1769999999999996,0.058
0.17799999999999727,0.0525
0.1789999999999985,0.055
0.17999999999999972,0.06
0.18099999999999739,0.0535
0.1819999999999986,0.0515
0.18299999999999983,0.048
0.1839999999999975,0.0425
0.18499999999999872,0.0455
0.18599999999999994,0.04
0.1869999999999976,0.0325
0.18799999999999883,0.031
0.18900000000000006,0.0355
0.18999999999999773,0.036
0.19099999999999895,0.0355
0.19199999999999662,0.038
0.19299999999999784,0.0365
0.19399999999999906,0.035
0.19499999999999673,0.0345
0.19599999999999795,0.035
0.19699999999999918,0.0375
0.19799999999999685,0.0415
0.19899999999999807,0.04
0.1999999999999993,0.0355
0.20099999999999696,0.032
0.20199999999999818,0.0335
0.2029999999999994,0.0335
0.20399999999999707,0.03
0.2049999999999983,0.0315
0.20599999999999952,0.032
0.2069999999999972,0.0345
0.2079999999999984,0.029
0.20899999999999963,0.0235
0.2099999999999973,0.0345
0.21099999999999852,0.0315
0.21199999999999974,0.0275
0.2129999999999974,0.0415
0.21399999999999864,0.038
0.21499999999999986,0.027
0.21599999999999753,0.0245
0.21699999999999875,0.0195
0.21799999999999997,0.0145
0.21899999999999764,0.0145
0.21999999999999886,0.016
0.22099999999999653,0.0085
0.22199999999999775,0.0035
0.22299999999999898,0.0095
0.22399999999999665,0.016
0.22499999999999787,0.016
0.2259999999999991,0.0205
0.22699999999999676,0.0225
0.22799999999999798,0.0205
0.2289999999999992,0.0395
0.22999999999999687,0.0595
0.2309999999999981,0.0745
0.23199999999999932,0.077
0.232999999999997,0.0805
0.2339999999999982,0.0975
0.23499999999999943,0.102
0.2359999999999971,0.1185
0.23699999999999832,0.1345
0.23799999999999955,0.146
0.23899999999999721,0.1705
0.23999999999999844,0.203
0.24099999999999966,0.234
0.24199999999999733,0.2515
0.24299999999999855,0.275
0.24399999999999977,0.3095
0.24499999999999744,0.3545
0.24599999999999866,0.417
0.2469999999999999,0.477
0.24799999999999756,0.5195
0.24899999999999878,0.557
0.25,0.5965
0.25099999999999767,0.6455
0.2519999999999989,0.6485
0.25299999999999656,0.636
0.2539999999999978,0.6465
0.254999999999999,0.623
0.2559999999999967,0.597
0.2569999999999979,0.555
0.2579999999999991,0.4975
0.2589999999999968,0.452
0.259999999999998,0.4095
0.26099999999999923,0.368
0.2619999999999969,0.334
0.2629999999999981,0.3145
0.26399999999999935,0.2895
0.264999999999997,0.2645
0.26599999999999824,0.242
0.26699999999999946,0.2185
0.26799999999999713,0.197
0.26899999999999835,0.1745
0.2699999999999996,0.151
0.27099999999999724,0.12
0.27199999999999847,0.101
0.2729999999999997,0.082
0.27399999999999736,0.059
0.2749999999999986,0.034
0.2759999999999998,0.001
0.27699999999999747,-0.02
0.2779999999999987,-0.0255
0.2789999999999999,-0.0255
0.2799999999999976,-0.028
0.2809999999999988,-0.028
0.28200000000000003,-0.0285
0.2829999999999977,-0.033
0.2839999999999989,-0.0355
0.2849999999999966,-0.03
0.2859999999999978,-0.0215
0.28699999999999903,-0.0255
0.2879999999999967,-0.0265
0.2889999999999979,-0.017
0.28999999999999915,-0.01
0.2909999999999968,-0.0155
0.29199999999999804,-0.0155
0.29299999999999926,-0.008
0.29399999999999693,-0.0005
0.29499999999999815,0.0055
0.2959999999999994,0.008
0.29699999999999704,0.015
0.29799999999999827,0.0185
0.2989999999999995,0.0235
0.29999999999999716,0.02
0.3009999999999984,0.019
0.3019999999999996,0.0255
0.30299999999999727,0.0255
0.3039999999999985,0.023
0.3049999999999997,0.025
0.3059999999999974,0.0295
0.3069999999999986,0.03
0.30799999999999983,0.029
0.3089999999999975,0.0225
0.3099999999999987,0.021
0.31099999999999994,0.0225
0.3119999999999976,0.027
0.31299999999999883,0.031
0.31400000000000006,0.0335
0.3149999999999977,0.037
0.31599999999999895,0.036
0.3169999999999966,0.038
0.31799999999999784,0.039
0.31899999999999906,0.0375
0.31999999999999673,0.042
0.32099999999999795,0.0415
0.3219999999999992,0.04
0.32299999999999685,0.0355
0.32399999999999807,0.0285
0.3249999999999993,0.027
0.32599999999999696,0.0225
0.3269999999999982,0.0245
0.3279999999999994,0.0265
0.3289999999999971,0.0305
0.3299999999999983,0.029
0.3309999999999995,0.0305
0.3319999999999972,0.042
0.3329999999999984,0.0355
0.33399999999999963,0.0325
0.3349999999999973,0.0375
0.3359999999999985,0.032
0.33699999999999974,0.031
0.3379999999999974,0.0355
0.33899999999999864,0.038
0.33999999999999986,0.037
0.3409999999999975,0.0375
0.34199999999999875,0.039
0.34299999999999997,0.035
0.34399999999999764,0.033
0.34499999999999886,0.032
0.34599999999999653,0.0365
0.34699999999999775,0.0395
0.347999999999999,0.0335
0.34899999999999665,0.0325
0.34999999999999787,0.044
0.3509999999999991,0.047
0.35199999999999676,0.0355
0.352999999999998,0.035
0.3539999999999992,0.047
0.3549999999999969,0.0495
0.3559999999999981,0.045
0.3569999999999993,0.0375
0.357999999999997,0.035
0.3589999999999982,0.0405
0.35999999999999943,0.037
0.3609999999999971,0.0345
0.3619999999999983,0.0335
0.36299999999999955,0.0345
0.3639999999999972,0.035
0.36499999999999844,0.0335
0.36599999999999966,0.034
0.36699999999999733,0.0335
0.36799999999999855,0.032
0.3689999999999998,0.035
0.36999999999999744,0.035
0.37099999999999866,0.0355
0.3719999999999999,0.0365
0.37299999999999756,0.0295
0.3739999999999988,0.032
0.375,0.036
0.37599999999999767,0.039
0.3769999999999989,0.0415
0.37799999999999656,0.037
0.3789999999999978,0.036
0.379999999999999,0.0345
0.3809999999999967,0.0365
0.3819999999999979,0.0405
0.3829999999999991,0.0405
0.3839999999999968,0.0395
0.384999999999998,0.0355
0.38599999999999923,0.0395
0.3869999999999969,0.0405
0.3879999999999981,0.034
0.38899999999999935,0.03
0.389999999999997,0.0345
0.39099999999999824,0.0385
0.39199999999999946,0.0385
0.39299999999999713,0.0385
0.39399999999999835,0.0355
0.3949999999999996,0.038
0.39599999999999724,0.0445
0.39699999999999847,0.048
0.3979999999999997,0.044
0.39899999999999736,0.0385
0.3999999999999986,0.0385
0.4009999999999998,0.0405
0.40199999999999747,0.0365
0.4029999999999987,0.039
0.4039999999999999,0.0385
0.4049999999999976,0.041
0.4059999999999988,0.0455
0.40700000000000003,0.0455
0.4079999999999977,0.0465
0.4089999999999989,0.045
0.4099999999999966,0.054
0.4109999999999978,0.044
0.41199999999999903,0.0495
0.4129999999999967,0.055
0.4139999999999979,0.0445
0.41499999999999915,0.052
0.4159999999999968,0.0515
0.41699999999999804,0.054
0.41799999999999926,0.0585
0.41899999999999693,0.0605
0.41999999999999815,0.0605
0.4209999999999994,0.059
0.42199999999999704,0.0615
0.42299999999999827,0.059
0.4239999999999995,0.06
0.42499999999999716,0.065
0.4259999999999984,0.0655
0.4269999999999996,0.065
0.42799999999999727,0.064
0.4289999999999985,0.0625
0.4299999999999997,0.0615
0.4309999999999974,0.0635
0.4319999999999986,0.0675
0.43299999999999983,0.0645
0.4339999999999975,0.067
0.4349999999999987,0.0705
0.43599999999999994,0.068
0.4369999999999976,0.0675
0.43799999999999883,0.066
0.43900000000000006,0.0675
0.4399999999999977,0.072
0.44099999999999895,0.072
0.4419999999999966,0.072
0.44299999999999784,0.0715
0.44399999999999906,0.0705
0.44499999999999673,0.075
0.44599999999999795,0.0805
0.4469999999999992,0.082
0.44799999999999685,0.077
0.44899999999999807,0.077
0.4499999999999993,0.0785
0.45099999999999696,0.0755
0.4519999999999982,0.0815
0.4529999999999994,0.0905
0.4539999999999971,0.0935
0.4549999999999983,0.0965
0.4559999999999995,0.0965
0.4569999999999972,0.1015
0.4579999999999984,0.1065
0.45899999999999963,0.107
0.4599999999999973,0.106
0.4609999999999985,0.1095
0.46199999999999974,0.1095
0.4629999999999974,0.104
0.46399999999999864,0.1055
0.46499999999999986,0.107
0.4659999999999975,0.115
0.46699999999999875,0.1175
0.46799999999999997,0.1155
0.46899999999999764,0.1165
0.46999999999999886,0.116
0.47099999999999653,0.1225
0.47199999999999775,0.123
0.472999999999999,0.12
0.47399999999999665,0.122
0.47499999999999787,0.1265
0.4759999999999991,0.1315
0.47699999999999676,0.136
0.477999999999998,0.138
0.4789999999999992,0.1395
0.4799999999999969,0.1385
0.4809999999999981,0.1385
0.4819999999999993,0.15
0.482999999999997,0.1505
0.4839999999999982,0.139
0.48499999999999943,0.141
0.4859999999999971,0.148
0.4869999999999983,0.152
0.48799999999999955,0.156
0.4889999999999972,0.1585
0.48999999999999844,0.155
0.49099999999999966,0.16
0.49199999999999733,0.1655
0.49299999999999855,0.1645
0.4939999999999998,0.17
0.49499999999999744,0.1725
0.49599999999999866,0.173
0.4969999999999999,0.1705
0.49799999999999756,0.1725
0.4989999999999988,0.174
0.5,0.1705
0.5009999999999977,0.1725
0.5019999999999989,0.1675
0.5029999999999966,0.167
0.5039999999999978,0.172
0.504999999999999,0.177
0.5059999999999967,0.1775
0.5069999999999979,0.1755
0.5079999999999991,0.176
0.5089999999999968,0.176
0.509999999999998,0.179
0.5109999999999992,0.1795
0.5119999999999969,0.175
0.5129999999999981,0.179
0.5139999999999993,0.1795
0.514999999999997,0.1795
0.5159999999999982,0.1865
0.5169999999999995,0.188
0.5179999999999971,0.194
0.5189999999999984,0.192
0.5199999999999996,0.196
0.5209999999999972,0.196
0.5219999999999985,0.1935
0.5229999999999997,0.2035
0.5239999999999974,0.2045
0.5249999999999986,0.198
0.5259999999999998,0.192
0.5269999999999975,0.1925
0.5279999999999987,0.189
0.5289999999999999,0.181
0.5299999999999976,0.1815
0.5309999999999988,0.1855
0.532,0.1815
0.5329999999999977,0.1795
0.5339999999999989,0.1805
0.5349999999999966,0.1785
0.5359999999999978,0.183
0.536999999999999,0.1765
0.5379999999999967,0.1665
0.5389999999999979,0.167
0.5399999999999991,0.169
0.5409999999999968,0.167
0.541999999999998,0.156
0.5429999999999993,0.1515
0.5439999999999969,0.1555
0.5449999999999982,0.154
0.5459999999999994,0.149
0.546999999999997,0.1485
0.5479999999999983,0.1445
0.5489999999999995,0.1395
0.5499999999999972,0.1365
0.5509999999999984,0.136
0.5519999999999996,0.137
0.5529999999999973,0.132
0.5539999999999985,0.13
0.5549999999999997,0.13
0.5559999999999974,0.1325
0.5569999999999986,0.1265
0.5579999999999998,0.123
0.5589999999999975,0.127
0.5599999999999987,0.1165
0.5609999999999999,0.115
0.5619999999999976,0.1115
0.5629999999999988,0.1025
0.5640000000000001,0.103
0.5649999999999977,0.0975
0.565999999999999,0.0935
0.5669999999999966,0.0905
0.5679999999999978,0.086
0.5689999999999991,0.085
0.5699999999999967,0.0825
0.570999999999998,0.078
0.5719999999999992,0.0815
0.5729999999999968,0.0885
0.5739999999999981,0.085
0.5749999999999993,0.09
0.575999999999997,0.096
0.5769999999999982,0.0935
0.5779999999999994,0.0935
0.5789999999999971,0.0885
0.5799999999999983,0.085
0.5809999999999995,0.085
0.5819999999999972,0.085
0.5829999999999984,0.077
0.5839999999999996,0.071
0.5849999999999973,0.071
0.5859999999999985,0.071
0.5869999999999997,0.07
0.5879999999999974,0.066
0.5889999999999986,0.0675
0.5899999999999999,0.0725
0.5909999999999975,0.0655
0.5919999999999987,0.0655
0.593,0.078
0.5939999999999976,0.071
0.5949999999999989,0.0615
0.5959999999999965,0.061
0.5969999999999978,0.07
0.597999999999999,0.0745
0.5989999999999966,0.072
0.5999999999999979,0.0675
0.6009999999999991,0.067
0.6019999999999968,0.0675
0.602999999999998,0.06
0.6039999999999992,0.065
0.6049999999999969,0.071
0.6059999999999981,0.062
0.6069999999999993,0.058
0.607999999999997,0.059
0.6089999999999982,0.0545
0.6099999999999994,0.053
0.6109999999999971,0.05
0.6119999999999983,0.0495
0.6129999999999995,0.049
0.6139999999999972,0.0525
0.6149999999999984,0.061
0.6159999999999997,0.0625
0.6169999999999973,0.0685
0.6179999999999986,0.073
0.6189999999999998,0.074
0.6199999999999974,0.0725
0.6209999999999987,0.076
0.6219999999999999,0.0705
0.6229999999999976,0.0675
0.6239999999999988,0.071
0.625,0.066
0.6259999999999977,0.065
0.6269999999999989,0.0615
0.6279999999999966,0.0665
0.6289999999999978,0.072
0.629999999999999,0.067
0.6309999999999967,0.069
0.6319999999999979,0.071
0.6329999999999991,0.0655
0.6339999999999968,0.0725
0.634999999999998,0.066
0.6359999999999992,0.057
0.6369999999999969,0.0605
0.6379999999999981,0.06
0.6389999999999993,0.064
0.639999999999997,0.0615
0.6409999999999982,0.06
0.6419999999999995,0.0635
0.6429999999999971,0.068
0.6439999999999984,0.0635
0.6449999999999996,0.06
0.6459999999999972,0.061
0.6469999999999985,0.057
0.6479999999999997,0.0605
0.6489999999999974,0.0615
0.6499999999999986,0.058
0.6509999999999998,0.0565
0.6519999999999975,0.0525
0.6529999999999987,0.0585
0.6539999999999999,0.0625
0.6549999999999976,0.0655
0.6559999999999988,0.07
0.657,0.0655
0.6579999999999977,0.069
0.6589999999999989,0.0715
0.6599999999999966,0.074
0.6609999999999978,0.078
0.661999999999999,0.074
0.6629999999999967,0.066
0.6639999999999979,0.06
0.6649999999999991,0.0575
0.6659999999999968,0.0615
0.666999999999998,0.066
0.6679999999999993,0.0635
0.6689999999999969,0.0645
0.6699999999999982,0.0605
0.6709999999999994,0.059
0.671999999999997,0.065
0.6729999999999983,0.0705
0.6739999999999995,0.0655
0.6749999999999972,0.064
0.6759999999999984,0.0665
0.6769999999999996,0.063
0.6779999999999973,0.065
0.6789999999999985,0.0655
0.6799999999999997,0.067
0.6809999999999974,0.067
0.6819999999999986,0.056
0.6829999999999998,0.0515
0.6839999999999975,0.053
0.6849999999999987,0.0525
0.6859999999999999,0.0505
0.6869999999999976,0.054
0.6879999999999988,0.055
0.6890000000000001,0.0505
0.6899999999999977,0.0565
0.690999999999999,0.0535
0.6919999999999966,0.049
0.6929999999999978,0.0515
0.6939999999999991,0.053
0.6949999999999967,0.0575
0.695999999999998,0.0605
0.6969999999999992,0.0535
0.6979999999999968,0.054
0.6989999999999981,0.061
0.6999999999999993,0.0585
0.700999999999997,0.065
0.7019999999999982,0.066
0.7029999999999994,0.0645
0.7039999999999971,0.0635
0.7049999999999983,0.059
0.7059999999999995,0.0635
0.7069999999999972,0.0605
0.7079999999999984,0.058
0.7089999999999996,0.0595
0.7099999999999973,0.06
0.7109999999999985,0.056
0.7119999999999997,0.057
0.7129999999999974,0.057
0.7139999999999986,0.047
0.7149999999999999,0.0515
0.7159999999999975,0.044
0.7169999999999987,0.0505
0.718,0.0605
0.7189999999999976,0.051
0.7199999999999989,0.06
0.7209999999999965,0.0625
0.7219999999999978,0.0605
0.722999999999999,0.0565
0.7239999999999966,0.0535
0.7249999999999979,0.0555
0.7259999999999991,0.0515
0.7269999999999968,0.051
0.727999999999998,0.0505
0.7289999999999992,0.0535
0.7299999999999969,0.0615
0.7309999999999981,0.059
0.7319999999999993,0.049
0.732999999999997,0.0485
0.7339999999999982,0.0555
0.7349999999999994,0.0535
0.7359999999999971,0.0505
0.7369999999999983,0.0575
0.7379999999999995,0.061
0.7389999999999972,0.0625
0.7399999999999984,0.0595
0.7409999999999997,0.0575
0.7419999999999973,0.064
0.7429999999999986,0.059
0.7439999999999998,0.053
0.7449999999999974,0.0525
0.7459999999999987,0.055
0.7469999999999999,0.06
0.7479999999999976,0.05
0.7489999999999988,0.05
0.75,0.056
0.7509999999999977,0.0575
0.7519999999999989,0.0555
0.7529999999999966,0.0545
0.7539999999999978,0.0645
0.754999999999999,0.0625
0.7559999999999967,0.0625
0.7569999999999979,0.058
0.7579999999999991,0.055
0.7589999999999968,0.063
0.759999999999998,0.062
0.7609999999999992,0.0585
0.7619999999999969,0.0525
0.7629999999999981,0.0505
0.7639999999999993,0.052
0.764999999999997,0.053
0.7659999999999982,0.053
0.7669999999999995,0.057
0.7679999999999971,0.059
0.7689999999999984,0.0565
0.7699999999999996,0.054
0.7709999999999972,0.0595
0.7719999999999985,0.0645
0.7729999999999997,0.0575
0.7739999999999974,0.061
0.7749999999999986,0.066
0.7759999999999998,0.064
0.7769999999999975,0.0575
0.7779999999999987,0.063
0.7789999999999999,0.07
0.7799999999999976,0.065
0.7809999999999988,0.064
0.782,0.065
0.7829999999999977,0.065
0.7839999999999989,0.064
0.7849999999999966,0.0595
0.7859999999999978,0.057
0.786999999999999,0.0595
0.7879999999999967,0.0565
0.7889999999999979,0.0575
0.7899999999999991,0.061
0.7909999999999968,0.0615
0.791999999999998,0.0555
0.7929999999999993,0.0525
0.7939999999999969,0.0565
0.7949999999999982,0.058
0.7959999999999994,0.0605
0.796999999999997,0.0605
0.7979999999999983,0.0625
0.7989999999999995,0.063
